cardiac cycle [%],t abs [s],t [s],ECG [mV],AoP [mmHg],LVP [mmHg],LAD Flow [mL/s],AoP/Flow,Pao/PLV,rad strain,circ strain,long strain,tissue vol ischemic [ml],tissue vol border [ml],tissue vol remote [ml]0.00,0,0.609984,-0.479,45.63,22.505,5.419,8.420372763,2.027549433,0,0,0,0.598304,0.723902,0.9112530.01,0.006703,0.616687,0.663,45.416,25.053,5.419,8.380882082,1.812796871,0.001557224,-0.002547865,0.000327836,0.597997,0.724853,0.9086050.02,0.013407,0.623391,0.628,45.416,28.025,4.926,9.219650832,1.620553078,0.003107778,-0.004526789,0.001075493,0.597999,0.724359,0.9050560.03,0.02011,0.630094,0.653,45.203,31.847,5.419,8.341575937,1.419380161,0.004255726,-0.007567388,0.00251794,0.597784,0.7221,0.8981810.04,0.026813,0.636797,0.692,46.056,37.579,5.912,7.790257104,1.225578115,0.004259454,-0.008346141,0.004557371,0.598595,0.716931,0.8873370.05,0.033516,0.6435,0.699,49.254,44.798,7.389,6.665854649,1.099468726,0.003939633,-0.00784006,0.00683706,0.596709,0.716678,0.8870320.06,0.040219,0.650203,0.717,51.813,51.38,8.375,6.186626866,1.008427404,0.002877043,-0.008172545,0.009408832,0.594846,0.715978,0.8837640.07,0.046922,0.656906,0.717,55.864,56.475,9.36,5.968376068,0.989181054,0.000604029,-0.008787442,0.011235293,0.594217,0.717042,0.8815190.08,0.053625,0.663609,0.706,60.129,61.146,10.838,5.547979332,0.983367677,0.000729024,-0.010518319,0.012297032,0.593354,0.718072,0.8788420.09,0.060328,0.670312,0.721,63.114,64.543,11.33,5.570520741,0.977859721,0.000693826,-0.014000185,0.012956131,0.593149,0.718308,0.8768110.10,0.067032,0.677016,0.696,65.886,67.728,12.316,5.349626502,0.972802977,-0.00011066,-0.015955726,0.014008231,0.593568,0.717958,0.8746940.10,0.073735,0.683719,0.699,68.018,69.639,11.823,5.753023767,0.976722813,0.000312582,-0.019054914,0.015049075,0.588651,0.714693,0.8706570.11,0.080438,0.690422,0.681,69.937,71.337,11.823,5.915334517,0.980374841,0.001014341,-0.022603919,0.015237871,0.587546,0.711372,0.8672540.12,0.087141,0.697125,0.674,71.003,72.399,11.823,6.005497759,0.980717966,0.002461814,-0.026506855,0.015474153,0.589289,0.714302,0.8644910.13,0.093844,0.703828,0.678,71.429,72.611,11.823,6.041529223,0.983721475,0.005460537,-0.030126141,0.015332846,0.587308,0.71395,0.8629160.14,0.100547,0.710531,0.656,72.282,73.248,12.316,5.868950958,0.986811927,0.00904986,-0.034643841,0.015281952,0.585463,0.71343,0.8590350.15,0.10725,0.717234,0.674,72.495,73.46,12.316,5.886245534,0.986863599,0.011321644,-0.039683705,0.015264229,0.582562,0.712349,0.8564830.16,0.113954,0.723938,0.663,72.922,73.673,12.808,5.693472829,0.989806306,0.013841935,-0.044488506,0.014868906,0.580937,0.711756,0.8544430.17,0.120657,0.730641,0.66,73.135,73.673,12.808,5.710103061,0.99269746,0.017186627,-0.049160564,0.013941943,0.579855,0.711198,0.8511240.18,0.12736,0.737344,0.667,73.348,73.46,12.808,5.726733292,0.998475361,0.02008519,-0.053954597,0.014040143,0.57783,0.711469,0.8498640.19,0.134063,0.744047,0.646,73.775,73.673,12.808,5.76007183,1.001384496,0.022257937,-0.058475972,0.014324668,0.575871,0.710565,0.8471920.20,0.140766,0.75075,0.656,73.988,73.673,12.808,5.776702061,1.004275651,0.023950888,-0.062643298,0.014616561,0.574132,0.710215,0.8445740.21,0.147469,0.757453,0.638,74.414,73.885,12.808,5.809962523,1.007159775,0.026350987,-0.066832903,0.014236313,0.572153,0.709666,0.8424840.22,0.154172,0.764156,0.635,74.414,73.885,12.808,5.809962523,1.007159775,0.028894246,-0.071890859,0.012765513,0.570265,0.709182,0.8410180.23,0.160875,0.770859,0.642,74.414,73.673,13.301,5.594616946,1.010057959,0.031580728,-0.076743576,0.01348908,0.568575,0.708843,0.8400480.24,0.167578,0.777562,0.621,74.628,73.673,13.301,5.610705962,1.012962686,0.034167818,-0.081487327,0.013827897,0.563862,0.70967,0.8387190.25,0.174282,0.784266,0.635,74.841,73.673,13.301,5.626719796,1.015853841,0.036617705,-0.085069752,0.013300962,0.56552,0.70777,0.8376020.26,0.180985,0.790969,0.628,75.054,73.673,13.793,5.441455811,1.018744995,0.038976996,-0.087537111,0.012343744,0.560913,0.7091,0.8363570.27,0.187688,0.797672,0.635,74.628,73.248,13.301,5.610705962,1.018840105,0.041339284,-0.090489172,0.012551184,0.559069,0.709503,0.8360950.28,0.194391,0.804375,0.667,74.414,72.823,13.301,5.594616946,1.021847493,0.042835581,-0.093303334,0.010620414,0.557433,0.70913,0.8356220.29,0.201094,0.811078,0.685,74.201,72.611,12.808,5.793332292,1.021897509,0.044322557,-0.096139766,0.011112963,0.556057,0.709467,0.8353070.30,0.207797,0.817781,0.753,73.988,72.186,12.808,5.776702061,1.024963289,0.04575505,-0.098488611,0.011294818,0.554318,0.709078,0.8341190.30,0.2145,0.824484,0.771,73.561,71.762,12.808,5.743363523,1.025068978,0.046741351,-0.101498192,0.01116326,0.552248,0.708528,0.8333980.31,0.221203,0.831187,0.767,72.922,71.125,12.808,5.693472829,1.025265378,0.047569798,-0.104005461,0.010849306,0.550909,0.708915,0.8338710.32,0.227907,0.837891,0.746,72.282,70.276,12.316,5.868950958,1.028544596,0.048296821,-0.106513626,0.010494365,0.550022,0.708823,0.8335640.33,0.23461,0.844594,0.678,71.856,69.639,12.316,5.834361806,1.031835609,0.049038443,-0.109297069,0.010900667,0.549122,0.708652,0.8327110.34,0.241313,0.851297,0.649,71.003,68.789,11.823,6.005497759,1.032185378,0.050032166,-0.111653996,0.011151604,0.548664,0.708398,0.8323360.35,0.248016,0.858,0.631,69.937,67.728,11.33,6.172727273,1.032615757,0.050331215,-0.113483076,0.011199465,0.548704,0.708472,0.8312930.36,0.254719,0.864703,0.642,68.871,66.666,10.838,6.354585717,1.033075331,0.050331066,-0.115285594,0.011390053,0.548136,0.708576,0.8309930.37,0.261422,0.871406,0.656,68.018,65.392,10.838,6.275881159,1.040157817,0.049670861,-0.116583323,0.012047914,0.54749,0.708518,0.8312280.38,0.268125,0.878109,0.656,67.165,64.543,10.345,6.492508458,1.04062408,0.047779941,-0.117650111,0.012229088,0.547434,0.708295,0.8304570.39,0.274828,0.884812,0.678,65.886,62.845,10.345,6.368873852,1.048388893,0.046803641,-0.118340407,0.012523657,0.547631,0.70885,0.8300730.40,0.281532,0.891516,0.667,65.033,61.571,9.853,6.600324774,1.05622777,0.046231184,-0.118619278,0.013120961,0.547085,0.708506,0.8292160.41,0.288235,0.898219,0.66,63.753,60.085,9.36,6.811217949,1.06104685,0.045925763,-0.118585691,0.013893005,0.547441,0.708798,0.8296660.42,0.294938,0.904922,0.674,62.261,58.386,8.867,7.021653321,1.06636865,0.045736543,-0.11897151,0.015063265,0.548475,0.709179,0.8293340.43,0.301641,0.911625,0.66,60.981,56.9,8.375,7.281313433,1.07172232,0.044114137,-0.120351564,0.014668716,0.548958,0.70999,0.8293090.44,0.308344,0.918328,0.674,59.062,54.564,7.882,7.493275818,1.082435305,0.042707276,-0.120854432,0.013916855,0.550736,0.712246,0.8300630.45,0.315047,0.925031,0.66,57.143,51.804,7.389,7.733522804,1.10306154,0.041497734,-0.120401352,0.01321525,0.552152,0.713204,0.8306670.46,0.32175,0.931734,0.663,54.798,48.407,6.404,8.556839475,1.13202636,0.042831902,-0.119566977,0.010169831,0.55342,0.713185,0.8314930.47,0.328453,0.938437,0.671,57.57,43.949,7.882,7.30398376,1.309927416,0.043881197,-0.118062673,0.007744468,0.555985,0.715814,0.8332540.48,0.335157,0.945141,0.649,61.408,39.702,9.36,6.560683761,1.546723087,0.04494759,-0.115391168,0.006279067,0.556592,0.716037,0.8349140.49,0.34186,0.951844,0.667,60.768,35.244,10.838,5.60693855,1.724208376,0.047607681,-0.114007875,0.004256346,0.556856,0.716374,0.8356580.50,0.348563,0.958547,0.653,60.129,31.847,9.853,6.102608343,1.88805853,0.049643032,-0.113538505,0.001799819,0.558318,0.71661,0.8376440.50,0.355266,0.96525,0.663,59.702,28.45,9.36,6.378418803,2.098488576,0.054504042,-0.114697806,-0.000591649,0.559729,0.717785,0.8382430.51,0.361969,0.971953,0.667,59.915,25.69,9.853,6.080889069,2.33223044,0.05825313,-0.115161155,-0.003135328,0.56074,0.717795,0.8397380.52,0.368672,0.978656,0.649,60.342,23.354,9.853,6.124226124,2.583797208,0.062154067,-0.115797129,-0.006710547,0.56162,0.717556,0.8405190.53,0.375375,0.985359,0.671,60.129,20.594,10.345,5.812373127,2.919733903,0.066498726,-0.117104882,-0.009619355,0.563077,0.717775,0.842050.54,0.382078,0.992062,0.653,59.915,18.471,10.838,5.528233992,3.24373342,0.07030091,-0.116459972,-0.012473171,0.56413,0.718676,0.8424060.55,0.388782,0.998766,0.663,59.276,16.348,10.838,5.469274774,3.625886959,0.073995294,-0.115506346,-0.014968444,0.565135,0.717597,0.8434110.56,0.395485,1.005469,0.663,59.276,14.862,10.838,5.469274774,3.98842686,0.079161563,-0.113990079,-0.017550183,0.56631,0.717004,0.8439370.57,0.402188,1.012172,0.653,59.276,13.8,10.345,5.729917835,4.295362319,0.083777611,-0.113254111,-0.020744357,0.56804,0.71597,0.8447080.58,0.408891,1.018875,0.667,58.849,12.314,9.853,5.97269867,4.779031996,0.086390308,-0.112150667,-0.024169017,0.570393,0.716349,0.8463950.59,0.415594,1.025578,0.646,58.636,11.677,10.345,5.668052199,5.021495247,0.088629901,-0.109594513,-0.025702517,0.572135,0.717153,0.8493970.60,0.422297,1.032281,0.66,58.21,10.828,10.345,5.626872885,5.375877355,0.089104639,-0.105127159,-0.027979483,0.574946,0.718741,0.8548970.61,0.429,1.038984,0.663,58.21,10.615,9.36,6.219017094,5.483749411,0.087670565,-0.099761879,-0.0273219,0.577882,0.720688,0.8618530.62,0.435703,1.045687,0.646,57.996,10.403,9.36,6.196153846,5.574930309,0.085624224,-0.092889003,-0.024194887,0.581022,0.7226,0.8714430.63,0.442407,1.052391,0.671,57.57,9.978,8.867,6.49261306,5.769693325,0.081610356,-0.086173399,-0.021562348,0.586425,0.724066,0.8793660.64,0.44911,1.059094,0.653,57.57,10.191,9.36,6.150641026,5.649102149,0.074980226,-0.079661799,-0.017296817,0.592596,0.720452,0.8872950.65,0.455813,1.065797,0.66,57.143,9.978,9.36,6.105021368,5.726899178,0.068920114,-0.068511584,-0.01368686,0.592825,0.720149,0.8933720.66,0.462516,1.0725,0.663,56.93,10.191,9.36,6.082264957,5.586301639,0.060454137,-0.060368894,-0.011047752,0.597591,0.723006,0.8968760.67,0.469219,1.079203,0.649,56.93,10.828,9.36,6.082264957,5.257665312,0.052300503,-0.052829797,-0.009751243,0.598517,0.722558,0.8975060.68,0.475922,1.085906,0.667,56.717,11.252,9.36,6.059508547,5.040615002,0.04652312,-0.046191712,-0.009094518,0.599554,0.723019,0.8992760.69,0.482625,1.092609,0.649,56.504,11.677,8.867,6.372392015,4.838914105,0.041192711,-0.040547267,-0.009064731,0.601454,0.724969,0.9000010.70,0.489328,1.099312,0.649,56.077,11.889,8.867,6.324235931,4.716712928,0.03769814,-0.036583164,-0.010169027,0.602283,0.726235,0.9029830.70,0.496032,1.106016,0.649,56.077,12.102,8.867,6.324235931,4.63369691,0.035334284,-0.032064215,-0.011794194,0.602938,0.726152,0.9037570.71,0.502735,1.112719,0.638,55.864,12.314,8.867,6.300214278,4.53662498,0.033453024,-0.030676337,-0.013414473,0.603063,0.726505,0.9063430.72,0.509438,1.119422,0.66,55.438,12.314,8.867,6.252170971,4.50203021,0.031459628,-0.030293101,-0.014625909,0.602237,0.726324,0.9072020.73,0.516141,1.126125,0.646,55.011,12.526,8.375,6.568477612,4.39174517,0.030212794,-0.030538464,-0.015077604,0.601744,0.725482,0.9070450.74,0.522844,1.132828,0.656,54.372,12.314,8.867,6.131949927,4.415462076,0.030324725,-0.031046936,-0.014874266,0.601608,0.725337,0.906690.75,0.529547,1.139531,0.653,54.158,12.526,8.375,6.466626866,4.323646815,0.02930304,-0.031280431,-0.014399652,0.601053,0.724314,0.9064110.76,0.53625,1.146234,0.646,53.519,12.526,8.375,6.390328358,4.272632924,0.028666206,-0.031434427,-0.01376448,0.600933,0.724158,0.9070920.77,0.542954,1.152938,0.66,52.879,12.314,8.375,6.313910448,4.294217963,0.028488948,-0.031699954,-0.013297809,0.600574,0.723569,0.907060.78,0.549657,1.159641,0.646,52.453,12.526,7.882,6.65478305,4.187529938,0.028045717,-0.03232931,-0.012975179,0.60045,0.72295,0.9079550.79,0.55636,1.166344,0.653,52.026,12.314,7.389,7.041006902,4.224947215,0.027883738,-0.033212482,-0.012467816,0.600957,0.72285,0.9078560.80,0.563063,1.173047,0.653,51.813,12.526,7.389,7.012180268,4.136436213,0.028515631,-0.033735197,-0.012042088,0.600348,0.722746,0.907980.81,0.569766,1.17975,0.653,51.387,12.526,7.389,6.954527,4.102426952,0.028924247,-0.034339709,-0.011852847,0.600676,0.723085,0.9077990.82,0.576469,1.186453,0.656,50.96,12.102,7.389,6.896738395,4.210874236,0.028803128,-0.034796924,-0.011571066,0.600474,0.723338,0.9079780.83,0.583172,1.193156,0.599,50.747,12.314,7.389,6.867911761,4.121081696,0.029189332,-0.034975053,-0.011345108,0.599629,0.723006,0.9083360.84,0.589875,1.199859,0.592,50.32,12.314,7.389,6.810123156,4.086405717,0.029454632,-0.034657291,-0.011279511,0.60015,0.723069,0.9087470.85,0.596579,1.206563,0.546,50.107,12.526,6.897,7.265042772,4.000239502,0.029440802,-0.034310292,-0.01172171,0.600463,0.723461,0.9088410.86,0.603282,1.213266,0.481,49.894,12.739,7.389,6.752469888,3.916633959,0.02953961,-0.033638264,-0.011871212,0.600183,0.723606,0.9090390.87,0.609985,1.219969,0.542,49.468,12.526,7.389,6.694816619,3.949225611,0.02888619,-0.033308833,-0.012166114,0.600295,0.723997,0.9093470.88,0.616688,1.226672,0.617,49.254,12.739,7.389,6.665854649,3.866394536,0.0278408,-0.032928449,-0.012285718,0.599783,0.72424,0.9097670.89,0.623391,1.233375,0.685,48.828,12.951,6.897,7.079599826,3.770210795,0.026406007,-0.031956158,-0.012359489,0.599137,0.72382,0.9106140.90,0.630094,1.240078,0.696,48.828,13.163,6.897,7.079599826,3.709488718,0.025272723,-0.031099722,-0.011911467,0.599261,0.723688,0.910.90,0.636797,1.246781,0.685,48.401,13.588,6.404,7.557932542,3.562040035,0.023923194,-0.029127021,-0.010765304,0.597752,0.723122,0.9104750.91,0.6435,1.253484,0.696,47.762,13.588,5.912,8.078822733,3.515013247,0.02195448,-0.025305489,-0.009035894,0.599707,0.72352,0.9110930.92,0.650204,1.260188,0.671,47.762,14.225,5.912,8.078822733,3.357609842,0.019937495,-0.022512516,-0.007171356,0.600188,0.724019,0.9124750.93,0.656907,1.266891,0.688,47.549,14.649,5.912,8.042794317,3.245887091,0.017864771,-0.019211936,-0.004926257,0.600294,0.723413,0.9121020.94,0.66361,1.273594,0.681,47.335,15.286,5.912,8.006596752,3.096624362,0.015852477,-0.014470124,-0.003557414,0.600756,0.723021,0.9133710.95,0.670313,1.280297,0.678,47.122,15.711,5.419,8.695700314,2.999299854,0.012439537,-0.011184568,-0.002292795,0.600532,0.722702,0.9136360.96,0.677016,1.287,0.771,46.696,15.923,5.419,8.617088024,2.932613201,0.009719013,-0.00666325,-0.001675802,0.600313,0.723592,0.9149910.97,0.683719,1.293703,1.046,46.696,16.773,5.419,8.617088024,2.783998092,0.00631914,-0.003224698,-0.001572613,0.600377,0.723764,0.9151540.98,0.690422,1.300406,1.338,46.269,17.197,5.419,8.538291198,2.690527418,0.003517675,-0.001060947,-0.001435189,0.599947,0.722993,0.9154250.99,0.697125,1.307109,0.724,46.269,18.259,5.419,8.538291198,2.534038009,0.001083529,0.001299661,-0.001399793,0.599052,0.722136,0.9145511.00,0.703828,1.313812,-0.74,46.056,19.745,5.419,8.498985053,2.332539884,-0.000124469,0.001698482,-0.001050478,0.597572,0.722126,0.913533