cardiac cycle [%],t abs [s],t [s],ECG [mV],AoP [mmHg],LVP [mmHg],LAD Flow [mL/s],AoP/Flow,Pao/PLV,rad strain,circ strain,long strain,tissue vol ischemic [ml],tissue vol border [ml],tissue vol remote [ml]0.00,0,0.127359,1.07,81.664,10.403,45.813,1.8,7.9,-0.00377571,0.001967067,-0.002707809,0.701614,0.801862,0.9816640.01,0.006703,0.134062,-0.108,81.451,15.499,45.813,1.8,5.3,-0.003225182,0.001723229,-0.006811445,0.696891,0.793648,0.9761720.02,0.013407,0.140766,-1.251,81.237,25.265,45.813,1.8,3.2,-0.002086145,-0.000403208,-0.01177988,0.688107,0.786257,0.9726540.03,0.02011,0.147469,0.106,80.811,39.066,44.335,1.8,2.1,0.00230225,-0.005265387,-0.016935046,0.685397,0.792643,0.9717750.04,0.026813,0.154172,0.756,79.745,51.167,41.872,1.9,1.6,0.003219122,-0.013083088,-0.020648848,0.685536,0.794158,0.9619690.05,0.033516,0.160875,0.688,82.517,76.433,39.902,2.1,1.1,0.006277375,-0.022343827,-0.022985816,0.682974,0.784965,0.9481870.06,0.040219,0.167578,0.71,97.442,106.369,39.902,2.4,0.9,0.013833059,-0.030019018,-0.02604608,0.670562,0.780332,0.9472860.07,0.046922,0.174281,0.753,109.169,120.594,44.828,2.4,0.9,0.021429905,-0.036230372,-0.029175651,0.668687,0.782299,0.9423880.08,0.053625,0.180984,0.738,111.088,120.806,46.306,2.4,0.9,0.027264869,-0.047303365,-0.033322397,0.665028,0.784726,0.9374670.09,0.060329,0.187688,0.771,108.956,118.046,46.306,2.4,0.9,0.036781558,-0.058954573,-0.039427656,0.663557,0.783678,0.9303090.10,0.067032,0.194391,0.76,106.824,114.649,44.335,2.4,0.9,0.047185868,-0.068310965,-0.04489543,0.657916,0.779754,0.9224740.10,0.073735,0.201094,0.763,106.397,112.738,42.365,2.5,0.9,0.055932292,-0.080805819,-0.050830914,0.649721,0.776904,0.9154310.11,0.080438,0.207797,0.753,107.463,112.526,40.394,2.7,1.0,0.068424778,-0.093809666,-0.054930115,0.645754,0.774789,0.9109590.12,0.087141,0.2145,0.731,109.382,113.163,39.409,2.8,1.0,0.078678543,-0.104242916,-0.059739191,0.640635,0.772728,0.9044460.13,0.093844,0.221203,0.753,110.875,113.588,39.902,2.8,1.0,0.085884593,-0.114887399,-0.06353615,0.636441,0.771967,0.8996120.14,0.100547,0.227906,0.738,111.728,114.012,40.394,2.8,1.0,0.09507401,-0.125946721,-0.066256452,0.633297,0.771401,0.8951840.15,0.10725,0.234609,0.735,112.154,113.588,40.394,2.8,1.0,0.105061169,-0.135854503,-0.06770263,0.628923,0.770366,0.8923560.16,0.113953,0.241312,0.746,113.86,113.375,40.887,2.8,1.0,0.111149448,-0.14340807,-0.069590042,0.625383,0.771372,0.888790.17,0.120657,0.248016,0.721,112.794,113.8,40.887,2.8,1.0,0.12072932,-0.151779758,-0.070526323,0.623495,0.771701,0.8881290.18,0.12736,0.254719,0.738,115.353,114.012,41.38,2.8,1.0,0.129338742,-0.159783273,-0.071058832,0.621732,0.772257,0.8817140.19,0.134063,0.261422,0.724,116.419,114.012,41.872,2.8,1.0,0.13765948,-0.165179244,-0.071191864,0.619441,0.772908,0.8786640.20,0.140766,0.268125,0.721,115.992,113.8,40.887,2.8,1.0,0.145068167,-0.169112786,-0.072375664,0.617962,0.773853,0.8777570.21,0.147469,0.274828,0.731,115.566,113.375,40.394,2.9,1.0,0.152252055,-0.172328063,-0.073310456,0.615444,0.774755,0.8764730.22,0.154172,0.281531,0.71,117.058,113.588,39.409,3.0,1.0,0.159696614,-0.174456642,-0.074441433,0.614961,0.776376,0.8775230.23,0.160875,0.288234,0.735,116.845,113.163,38.424,3.0,1.0,0.164266394,-0.1760752,-0.075363111,0.614614,0.778137,0.8772790.24,0.167578,0.294937,0.713,116.632,112.951,36.454,3.2,1.0,0.169690438,-0.178521402,-0.076251129,0.613612,0.778963,0.8786930.25,0.174282,0.301641,0.71,115.992,112.314,34.976,3.3,1.0,0.176733336,-0.180681522,-0.077615051,0.613604,0.779851,0.8770490.26,0.180985,0.308344,0.724,114.926,111.465,33.005,3.5,1.0,0.183501879,-0.182300594,-0.07912255,0.613906,0.781085,0.8778330.27,0.187688,0.315047,0.699,114.5,110.828,30.542,3.7,1.0,0.188917236,-0.184203969,-0.080177815,0.613633,0.782127,0.877250.28,0.194391,0.32175,0.713,113.434,109.766,28.572,4.0,1.0,0.193094948,-0.185291355,-0.080057281,0.613758,0.783106,0.8772450.29,0.201094,0.328453,0.696,112.367,108.28,26.109,4.3,1.0,0.198047391,-0.185667391,-0.078967957,0.615102,0.783852,0.8758450.30,0.207797,0.335156,0.696,110.875,106.369,24.138,4.6,1.0,0.201048592,-0.186003264,-0.07807951,0.615025,0.784472,0.8749670.30,0.2145,0.341859,0.696,109.382,104.246,23.153,4.7,1.0,0.202994852,-0.185938267,-0.077484578,0.614832,0.78398,0.8748310.31,0.221203,0.348562,0.685,108.103,102.123,23.153,4.7,1.1,0.202294557,-0.185780621,-0.077518558,0.614391,0.783793,0.8742030.32,0.227907,0.355266,0.696,106.824,98.938,24.631,4.3,1.1,0.199757528,-0.185270127,-0.0786277,0.614808,0.783743,0.8733340.33,0.23461,0.361969,0.688,105.971,95.329,26.601,4.0,1.1,0.195682926,-0.184466897,-0.078967769,0.614087,0.783289,0.8724690.34,0.241313,0.368672,0.678,104.052,90.445,29.064,3.6,1.2,0.190727236,-0.17997971,-0.07952473,0.613787,0.782473,0.8719960.35,0.248016,0.375375,0.642,102.559,83.651,30.542,3.4,1.2,0.186482658,-0.17846845,-0.08133168,0.614416,0.782977,0.872030.36,0.254719,0.382078,0.578,109.382,71.974,33.99,3.2,1.5,0.184938609,-0.176690004,-0.083690166,0.614652,0.784494,0.8718970.37,0.261422,0.388781,0.571,109.169,59.448,41.38,2.6,1.8,0.184666841,-0.175353385,-0.086373538,0.614064,0.785266,0.8727580.38,0.268125,0.395484,0.581,107.677,48.832,46.798,2.3,2.2,0.184599534,-0.174918969,-0.089139992,0.614662,0.785374,0.8726270.39,0.274828,0.402187,0.617,108.103,40.127,51.232,2.1,2.7,0.183861885,-0.174529135,-0.090564505,0.614477,0.784296,0.8722820.40,0.281532,0.408891,0.642,108.103,32.271,52.71,2.1,3.3,0.182705054,-0.177257221,-0.09165622,0.614002,0.784309,0.8730270.41,0.288235,0.415594,0.628,108.316,26.114,53.695,2.0,4.1,0.181754073,-0.177068953,-0.092084538,0.614853,0.784747,0.8748660.42,0.294938,0.422297,0.649,108.103,20.382,55.665,1.9,5.3,0.181547498,-0.176255906,-0.092718014,0.615431,0.785121,0.8754440.43,0.301641,0.429,0.638,107.89,15.499,56.651,1.9,7.0,0.179769676,-0.175511192,-0.092849894,0.616211,0.786032,0.8770610.44,0.308344,0.435703,0.642,107.25,11.465,57.636,1.9,9.4,0.176801566,-0.174680545,-0.090943035,0.616799,0.78712,0.8782220.45,0.315047,0.442406,0.649,107.037,8.28,58.621,1.8,12.9,0.173311321,-0.173791908,-0.089413432,0.616644,0.788222,0.8798630.46,0.32175,0.449109,0.628,107.037,6.369,58.621,1.8,16.8,0.167295479,-0.171990779,-0.088996545,0.617191,0.789514,0.8816110.47,0.328453,0.455812,0.646,106.611,4.671,59.114,1.8,22.8,0.161900565,-0.169018008,-0.084119823,0.619176,0.790196,0.885490.48,0.335157,0.462516,0.635,106.184,3.609,59.606,1.8,29.4,0.153367932,-0.162951413,-0.078196772,0.622056,0.793433,0.8898940.49,0.34186,0.469219,0.642,105.544,2.972,60.099,1.8,35.5,0.143810912,-0.152378334,-0.073710081,0.623845,0.797096,0.8961190.50,0.348563,0.475922,0.646,105.331,2.972,60.591,1.7,35.4,0.131116121,-0.139710336,-0.066763072,0.627841,0.803354,0.9047770.50,0.355266,0.482625,0.635,105.118,3.184,61.084,1.7,33.0,0.116370308,-0.127736629,-0.059978783,0.63293,0.81132,0.9223920.51,0.361969,0.489328,0.653,104.478,2.972,60.591,1.7,35.2,0.101723896,-0.112057771,-0.050807819,0.641866,0.815629,0.9311670.52,0.368672,0.496031,0.631,104.052,2.547,60.099,1.7,40.9,0.087062964,-0.098678287,-0.040054413,0.652755,0.818879,0.9402210.53,0.375375,0.502734,0.638,103.412,2.76,60.591,1.7,37.5,0.071297944,-0.082842716,-0.032403056,0.659394,0.815329,0.9455280.54,0.382079,0.509438,0.638,103.199,2.76,60.591,1.7,37.4,0.057982517,-0.068271116,-0.027135843,0.670796,0.811804,0.9495940.55,0.388782,0.516141,0.628,102.773,3.397,60.099,1.7,30.3,0.046214713,-0.05699138,-0.023777693,0.671135,0.808796,0.9508620.56,0.395485,0.522844,0.646,102.133,3.397,60.099,1.7,30.1,0.037651528,-0.047957345,-0.021201496,0.6729,0.802284,0.9532190.57,0.402188,0.529547,0.624,101.706,4.246,59.606,1.7,24.0,0.031834736,-0.040672197,-0.01950021,0.676202,0.801755,0.9550060.58,0.408891,0.53625,0.638,101.067,4.671,59.114,1.7,21.6,0.027744973,-0.033359867,-1.85E-02,0.681668,0.803031,0.9560780.59,0.415594,0.542953,0.642,100.427,5.308,58.621,1.7,18.9,0.025848287,-0.026558116,-1.58E-02,0.687947,0.806017,0.9584280.60,0.422297,0.549656,0.621,100.001,6.157,58.128,1.7,16.2,0.024313766,-0.020036428,-0.013248239,0.692962,0.808628,0.9633680.61,0.429,0.556359,0.642,99.148,5.52,57.143,1.7,18.0,0.022588502,-0.016362492,-0.012176187,0.696998,0.812319,0.9692240.62,0.435703,0.563062,0.628,98.508,5.732,56.651,1.7,17.2,0.021520832,-0.015229816,-0.011034484,0.700673,0.814651,0.9722770.63,0.442407,0.569766,0.635,97.442,5.732,56.651,1.7,17.0,0.020905091,-0.015267088,-0.010163796,0.700817,0.816694,0.9734290.64,0.44911,0.576469,0.631,96.802,5.732,56.158,1.7,16.9,0.021141646,-0.016644995,-0.009431562,0.700917,0.817099,0.9728120.65,0.455813,0.583172,0.624,96.163,5.732,55.665,1.7,16.8,0.021454459,-0.017853338,-0.008751336,0.699502,0.816512,0.9727620.66,0.462516,0.589875,0.642,95.097,5.52,55.665,1.7,17.2,0.021774848,-0.01877597,-0.0081511,0.698095,0.816059,0.9724870.67,0.469219,0.596578,0.617,94.244,5.52,54.188,1.7,17.1,0.021565936,-0.018751021,-0.007728444,0.69799,0.816424,0.9730770.68,0.475922,0.603281,0.635,93.391,5.52,53.695,1.7,16.9,0.020779923,-0.019835259,-0.007035158,0.696941,0.8161,0.9729010.69,0.482625,0.609984,0.631,92.964,5.52,53.695,1.7,16.8,0.01983744,-0.020959228,-0.006788974,0.696446,0.815942,0.9724640.70,0.489328,0.616687,0.628,92.538,5.52,52.71,1.8,16.8,0.019299363,-0.022011328,-0.006757456,0.695935,0.815218,0.9725540.70,0.496032,0.623391,0.642,91.472,5.095,52.71,1.7,18.0,0.019023946,-0.023171546,-0.006653585,0.6955,0.815187,0.9724750.71,0.502735,0.630094,0.624,91.045,5.308,51.724,1.8,17.2,0.018845106,-0.024694415,-0.006434681,0.69421,0.815259,0.9740460.72,0.509438,0.636797,0.638,90.406,5.308,51.724,1.7,17.0,0.018463973,-0.026136505,-0.006139104,0.694243,0.815423,0.973640.73,0.516141,0.6435,0.635,90.193,5.308,51.232,1.8,17.0,0.018105372,-0.02764417,-0.005769295,0.693696,0.815254,0.9739820.74,0.522844,0.650203,0.621,89.553,5.52,51.232,1.7,16.2,0.017872975,-0.028516324,-0.004891104,0.693267,0.816068,0.9745130.75,0.529547,0.656906,0.646,89.126,5.308,51.232,1.7,16.8,0.017533782,-0.028482169,-0.004372666,0.692769,0.81537,0.9746080.76,0.53625,0.663609,0.631,88.7,5.52,50.739,1.7,16.1,0.017163864,-0.028346289,-0.003843411,0.693673,0.815499,0.9740280.77,0.542953,0.670312,0.642,88.274,5.732,50.247,1.8,15.4,0.017019908,-0.028088638,-0.003251943,0.693783,0.81552,0.9740640.78,0.549657,0.677016,0.642,88.06,5.945,49.754,1.8,14.8,0.016632677,-0.027373898,-0.003219817,0.694421,0.816227,0.9742660.79,0.55636,0.683719,0.635,87.634,5.945,49.754,1.8,14.7,0.015963604,-0.026325971,-0.003176797,0.695072,0.816382,0.9746610.80,0.563063,0.690422,0.656,87.208,5.732,49.261,1.8,15.2,0.015668694,-0.025108037,-0.002923868,0.695579,0.816098,0.9752120.81,0.569766,0.697125,0.631,86.781,6.157,49.261,1.8,14.1,0.01511712,-0.023727496,-0.002698978,0.695756,0.816062,0.9756850.82,0.576469,0.703828,0.646,86.568,6.157,48.769,1.8,14.1,0.014936063,-0.022252858,-0.00274851,0.696811,0.8164,0.9766990.83,0.583172,0.710531,0.642,86.355,6.369,48.769,1.8,13.6,0.014468313,-0.020671765,-0.002532279,0.697479,0.816749,0.9771740.84,0.589875,0.717234,0.631,85.928,6.581,48.769,1.8,13.1,0.014025478,-0.019330206,-0.002135075,0.69819,0.817243,0.9769930.85,0.596579,0.723938,0.649,85.289,6.157,48.276,1.8,13.9,0.013753733,-0.018348895,-0.00157271,0.69854,0.81733,0.9770450.86,0.603282,0.730641,0.635,85.075,6.581,47.784,1.8,12.9,0.013425749,-0.017385597,-0.001174653,0.699347,0.816908,0.9775840.87,0.609985,0.737344,0.649,84.862,6.581,47.784,1.8,12.9,0.012785926,-0.016519802,-0.000841239,0.699846,0.816173,0.9782560.88,0.616688,0.744047,0.642,84.649,6.794,47.291,1.8,12.5,0.012435265,-0.015736208,-0.000459142,0.699548,0.816146,0.9782720.89,0.623391,0.75075,0.635,84.222,6.794,47.291,1.8,12.4,0.011916985,-0.014839578,-0.000140221,0.700269,0.816188,0.9787590.90,0.630094,0.757453,0.656,83.796,6.581,47.291,1.8,12.7,0.011064632,-0.014025675,0.000162166,0.700813,0.816315,0.9794140.90,0.636797,0.764156,0.638,83.583,6.794,47.291,1.8,12.3,0.010621018,-0.013044797,0.000464422,0.701555,0.816391,0.9798460.91,0.6435,0.770859,0.66,83.156,7.006,47.291,1.8,11.9,0.010336915,-0.01257724,0.000883413,0.701493,0.816304,0.9800440.92,0.650203,0.777562,0.66,83.156,7.006,46.798,1.8,11.9,0.009809766,-0.011906704,0.001238765,0.702125,0.817299,0.9808960.93,0.656907,0.784266,0.646,82.517,7.006,45.813,1.8,11.8,0.009471219,-0.011403153,0.001406127,0.702711,0.817067,0.9810490.94,0.66361,0.790969,0.606,82.09,6.794,45.813,1.8,12.1,0.009227718,-0.01117364,0.001676122,0.702537,0.817183,0.9812540.95,0.670313,0.797672,0.563,81.877,7.218,45.813,1.8,11.3,0.008746507,-0.011014641,0.001871361,0.702938,0.816558,0.9803250.96,0.677016,0.804375,0.528,81.451,7.218,45.321,1.8,11.3,0.008222292,-0.010136682,0.002085153,0.702875,0.817283,0.9813850.97,0.683719,0.811078,0.513,81.451,7.431,45.321,1.8,11.0,0.007647177,-0.009699809,0.002176848,0.703021,0.816693,0.9805520.98,0.690422,0.817781,0.596,81.024,7.431,45.321,1.8,10.9,0.006751193,-0.00859773,0.001837272,0.703099,0.815928,0.9812460.99,0.697125,0.824484,0.924,80.384,7.431,45.321,1.8,10.8,0.005325776,-0.006838059,0.000290369,0.703192,0.815733,0.979271.00,0.703828,0.831187,1.174,80.384,8.068,44.335,1.8,10.0,0.004351555,-0.004939539,-0.002613376,0.702567,0.811866,0.981812