cardiac cycle [%],t abs [s],t [s],LVP [mmHg],ECG [mV],LAD Flow [ml/s],AoP [mmHg],rad strain,circ strain,long strain,tissue vol ischemic [ml],tissue vol border [ml],tissue vol remote [ml],Unnamed: 13,Unnamed: 14,Unnamed: 15,Unnamed: 16,Unnamed: 17,Unnamed: 18,Unnamed: 19,Unnamed: 20,Unnamed: 21,Unnamed: 22,Unnamed: 23,Unnamed: 24,Unnamed: 25,Unnamed: 26,Unnamed: 27,Unnamed: 28,Unnamed: 29,Unnamed: 30,Unnamed: 31,Unnamed: 32,Unnamed: 33,Unnamed: 34,Unnamed: 35,Unnamed: 36,Unnamed: 37,Unnamed: 38,Unnamed: 39,Unnamed: 40,Unnamed: 41,Unnamed: 42,Unnamed: 43,Unnamed: 44,Unnamed: 45,Unnamed: 46,Unnamed: 47,Unnamed: 48,Unnamed: 49,Unnamed: 50,Unnamed: 51,Unnamed: 52,Unnamed: 53,Unnamed: 54,Unnamed: 55,Unnamed: 56,Unnamed: 57,Unnamed: 58,Unnamed: 59,Unnamed: 60,Unnamed: 61,Unnamed: 62,Unnamed: 63,Unnamed: 64,Unnamed: 65,Unnamed: 66,Unnamed: 67,Unnamed: 68,Unnamed: 69,Unnamed: 70,Unnamed: 71,Unnamed: 72,Unnamed: 73,Unnamed: 74,Unnamed: 75,Unnamed: 76,Unnamed: 77,Unnamed: 78,Unnamed: 79,Unnamed: 80,Unnamed: 81,Unnamed: 82,Unnamed: 83,Unnamed: 84,Unnamed: 85,Unnamed: 86,Unnamed: 87,Unnamed: 88,Unnamed: 89,Unnamed: 90,Unnamed: 91,Unnamed: 92,Unnamed: 93,Unnamed: 94,Unnamed: 95,Unnamed: 96,Unnamed: 97,Unnamed: 98,Unnamed: 99,Unnamed: 100,Unnamed: 101,Unnamed: 102,Unnamed: 103,Unnamed: 104,Unnamed: 105,Unnamed: 106,Unnamed: 107,Unnamed: 108,Unnamed: 109,Unnamed: 110,Unnamed: 111,Unnamed: 112,Unnamed: 113,Unnamed: 114,Unnamed: 115,Unnamed: 116,Unnamed: 117,Unnamed: 118,Unnamed: 119,Unnamed: 120,Unnamed: 121,Unnamed: 122,Unnamed: 123,Unnamed: 124,Unnamed: 125,Unnamed: 126,Unnamed: 127,Unnamed: 128,Unnamed: 129,Unnamed: 130,Unnamed: 131,Unnamed: 132,Unnamed: 133,Unnamed: 134,Unnamed: 135,Unnamed: 136,Unnamed: 137,Unnamed: 138,Unnamed: 139,Unnamed: 140,Unnamed: 141,Unnamed: 142,Unnamed: 143,Unnamed: 144,Unnamed: 145,Unnamed: 146,Unnamed: 147,Unnamed: 148,Unnamed: 149,Unnamed: 150,Unnamed: 151,Unnamed: 152,Unnamed: 153,Unnamed: 154,Unnamed: 155,Unnamed: 156,Unnamed: 157,Unnamed: 158,Unnamed: 159,Unnamed: 160,Unnamed: 161,Unnamed: 162,Unnamed: 163,Unnamed: 164,Unnamed: 165,Unnamed: 166,Unnamed: 167,Unnamed: 168,Unnamed: 169,Unnamed: 170,Unnamed: 171,Unnamed: 172,Unnamed: 173,Unnamed: 174,Unnamed: 175,Unnamed: 176,Unnamed: 177,Unnamed: 178,Unnamed: 179,Unnamed: 180,Unnamed: 181,Unnamed: 182,Unnamed: 183,Unnamed: 184,Unnamed: 185,Unnamed: 186,Unnamed: 187,Unnamed: 188,Unnamed: 189,Unnamed: 190,Unnamed: 191,Unnamed: 192,Unnamed: 193,Unnamed: 194,Unnamed: 195,Unnamed: 196,Unnamed: 197,Unnamed: 198,Unnamed: 199,Unnamed: 200,Unnamed: 201,Unnamed: 202,Unnamed: 203,Unnamed: 204,Unnamed: 205,Unnamed: 206,Unnamed: 207,Unnamed: 208,Unnamed: 209,Unnamed: 210,Unnamed: 211,Unnamed: 212,Unnamed: 213,Unnamed: 214,Unnamed: 215,Unnamed: 216,Unnamed: 217,Unnamed: 218,Unnamed: 219,Unnamed: 220,Unnamed: 221,Unnamed: 222,Unnamed: 223,Unnamed: 224,Unnamed: 225,Unnamed: 226,Unnamed: 227,Unnamed: 228,Unnamed: 229,Unnamed: 230,Unnamed: 231,Unnamed: 232,Unnamed: 233,Unnamed: 234,Unnamed: 235,Unnamed: 236,Unnamed: 237,Unnamed: 238,Unnamed: 239,Unnamed: 240,Unnamed: 241,Unnamed: 242,Unnamed: 243,Unnamed: 244,Unnamed: 245,Unnamed: 246,Unnamed: 247,Unnamed: 248,Unnamed: 249,Unnamed: 250,Unnamed: 251,Unnamed: 252,Unnamed: 253,Unnamed: 254,Unnamed: 255,Unnamed: 256,Unnamed: 257,Unnamed: 258,Unnamed: 259,Unnamed: 260,Unnamed: 261,Unnamed: 262,Unnamed: 263,Unnamed: 264,Unnamed: 265,Unnamed: 266,Unnamed: 267,Unnamed: 268,Unnamed: 269,Unnamed: 270,Unnamed: 271,Unnamed: 272,Unnamed: 273,Unnamed: 274
0.0,0.0,0.236111,13.646,1.031,7.882,45.647,0.0,0.0,0.0,1.194786,1.050235,0.885031,,,,,,,,,,,,,,,,,,,,,,,,,0.233984,5.92,13.575,13.245,14.529,14.609,17.621,16.82,27.442,29.601,29.077,27.735,38.97,38.143,37.981,36.185,63.977,48.255,44.852,47.496,41.34,37.822,14.68,9.909,15.719,13.746,19.284,15.705,26.746,27.06,29.18,25.912,37.322,35.64,36.75,34.08,58.661,46.741,41.694,46.562,44.515,40.636,10.185,20.867,21.614,15.37,18.08,32.568,34.95,28.309,28.772,42.909,42.855,37.663,36.626,66.318,38.598,53.85,49.409,38.514,43.613,20.978,19.131,19.415,16.648,30.718,30.384,29.468,26.353,39.981,38.421,36.597,33.925,57.623,39.698,47.172,48.162,45.102,46.349,5.342,11.26,8.926,13.789,18.93,16.721,16.514,25.917,26.627,25.418,24.589,59.462,43.401,37.734,33.585,31.938,25.671,14.29,7.899,13.082,15.507,18.237,14.866,24.384,23.835,25.063,22.945,54.626,43.3,33.859,33.413,36.471,29.374,9.424,20.266,25.561,13.983,17.759,30.609,32.367,24.809,25.371,63.278,34.838,47.048,35.533,26.037,30.097,15.019,17.506,13.76,11.385,24.85,25.041,21.452,19.808,54.339,35.541,38.752,32.21,33.263,32.051,9.267,13.631,10.467,12.316,14.15,15.965,14.857,51.893,42.967,29.586,20.928,33.722,23.454,19.608,11.351,11.6,8.606,18.126,13.834,42.942,43.666,23.02,22.999,42.182,32.125,10.023,19.589,23.225,11.499,14.122,57.373,31.641,42.214,21.992,24.14,26.462,15.01,15.967,11.125,8.493,47.919,33.233,34.284,21.88,34.098,31.607,6.614,13.158,11.474,45.52,43.827,26.909,11.879,39.81,29.841,17.346,13.319,39.986,45.553,21.562,17.777,45.098,34.342,6.2,50.003,31.567,38.742,13.172,31.997,31.889,44.397,32.601,34.277,15.926,36.987,34.77,60.868,38.132,51.989,81.213,74.14,64.83,42.756,41.786,56.996,37.255,62.908,45.49,36.969,30.985,26.164,13.433,0.985,8.375,46.072,194.214,0.0
0.003999766821304292,0.0021270000000000178,0.238238,13.859,1.006,7.882,45.647,0.00070476385814765,-0.000396680874253732,-0.000529492061676561,1.194809,1.050473,0.886288,,,,,,,,,,,,,,,,,,,,,,,,,0.236111,5.901,13.572,13.251,14.53,14.609,17.623,16.832,27.43,29.563,29.08,27.712,38.948,38.122,37.961,36.14,63.999,48.221,44.818,47.485,41.334,37.843,14.667,9.909,15.699,13.729,19.262,15.688,26.724,27.014,29.161,25.872,37.291,35.607,36.711,34.019,58.696,46.696,41.67,46.543,44.481,40.638,10.207,20.866,21.615,15.381,18.097,32.567,34.921,28.318,28.756,42.913,42.83,37.655,36.6,66.363,38.565,53.846,49.422,38.487,43.63,20.969,19.116,19.417,16.629,30.701,30.328,29.455,26.306,39.957,38.364,36.555,33.861,57.64,39.648,47.146,48.155,45.08,46.364,5.347,11.248,8.945,13.776,18.901,16.721,16.501,25.896,26.616,25.401,24.552,59.47,43.378,37.725,33.567,31.938,25.692,14.283,7.899,13.073,15.47,18.235,14.844,24.361,23.817,25.039,22.897,54.631,43.277,33.849,33.399,36.473,29.399,9.449,20.252,25.528,13.982,17.743,30.601,32.337,24.795,25.343,63.292,34.818,47.045,35.526,26.018,30.104,15.017,17.458,13.766,11.347,24.835,24.996,21.424,19.753,54.324,35.513,38.745,32.208,33.278,32.091,9.276,13.633,10.494,12.308,14.168,15.967,14.85,51.9,42.98,29.609,20.92,33.73,23.456,19.593,11.339,11.608,8.623,18.11,13.799,42.943,43.659,23.068,23.021,42.184,32.144,10.028,19.598,23.198,11.49,14.112,57.365,31.637,42.239,21.992,24.146,26.481,15.046,15.945,11.125,8.473,47.915,33.229,34.322,21.923,34.108,31.641,6.614,13.189,11.512,45.503,43.887,26.927,11.903,39.838,29.828,17.3,13.256,39.931,45.52,21.649,17.787,45.11,34.385,6.21,49.966,31.584,38.776,13.223,32.02,31.911,44.366,32.629,34.304,16.001,37.006,34.785,60.915,38.176,51.992,81.209,74.134,64.895,42.842,41.74,57.007,37.3,62.944,45.495,36.976,30.932,26.21,13.646,1.031,7.882,45.647,256.063,0.0
0.007999533642608532,0.004254000000000008,0.240365,13.859,0.971,7.882,45.435,0.00198172339299779,-0.000663566405051016,-0.00102618127786352,1.195396,1.049951,0.885905,,,,,,,,,,,,,,,,,,,,,,,,,0.238238,5.869,13.569,13.256,14.532,14.612,17.628,16.823,27.422,29.534,29.081,27.696,38.933,38.087,37.947,36.107,63.916,48.216,44.797,47.498,41.347,37.882,14.663,9.922,15.686,13.723,19.25,15.675,26.713,26.993,29.154,25.856,37.279,35.581,36.696,33.99,58.641,46.693,41.667,46.555,44.471,40.657,10.238,20.864,21.608,15.375,18.096,32.561,34.9,28.317,28.744,42.911,42.802,37.647,36.578,66.312,38.569,53.842,49.438,38.477,43.647,20.967,19.096,19.415,16.61,30.684,30.286,29.444,26.269,39.933,38.315,36.526,33.812,57.552,39.63,47.125,48.155,45.082,46.394,5.354,11.253,8.946,13.766,18.876,16.722,16.497,25.882,26.583,25.389,24.526,59.391,43.379,37.704,33.578,31.948,25.726,14.275,7.875,13.064,15.438,18.223,14.819,24.341,23.778,25.011,22.852,54.539,43.253,33.836,33.405,36.48,29.447,9.452,20.244,25.502,13.98,17.732,30.596,32.302,24.783,25.317,63.218,34.813,47.031,35.537,26.022,30.13,15.016,17.433,13.776,11.338,24.834,24.964,21.418,19.729,54.248,35.515,38.732,32.23,33.29,32.127,9.271,13.631,10.509,12.302,14.149,15.959,14.838,51.829,42.979,29.598,20.938,33.733,23.483,19.579,11.327,11.61,8.617,18.093,13.777,42.877,43.642,23.079,23.047,42.177,32.171,10.038,19.603,23.17,11.484,14.099,57.296,31.637,42.23,22.005,24.147,26.498,15.066,15.925,11.126,8.456,47.838,33.219,34.321,21.961,34.119,31.681,6.598,13.201,11.534,45.434,43.904,26.901,11.935,39.846,29.836,17.269,13.231,39.867,45.495,21.662,17.801,45.091,34.396,6.212,49.892,31.586,38.761,13.247,32.024,31.923,44.298,32.626,34.295,16.044,37.003,34.799,60.87,38.134,51.94,81.141,74.084,64.896,42.857,41.733,57.019,37.301,62.934,45.498,36.981,30.936,26.214,13.859,1.006,7.882,45.647,315.117,0.0
0.011999300463912822,0.0063810000000000255,0.242492,14.712,0.881,7.882,45.01,0.00334584813022879,-0.00131333319452636,-0.00106613321212755,1.194815,1.049491,0.88653,,,,,,,,,,,,,,,,,,,,,,,,,0.240365,5.843,13.563,13.262,14.524,14.61,17.628,16.825,27.41,29.503,29.079,27.674,38.905,38.04,37.924,36.069,63.83,48.201,44.784,47.518,41.368,37.917,14.666,9.944,15.665,13.708,19.236,15.674,26.693,26.962,29.143,25.83,37.25,35.538,36.668,33.951,58.576,46.681,41.665,46.572,44.472,40.674,10.261,20.858,21.611,15.382,18.103,32.564,34.889,28.329,28.74,42.912,42.778,37.65,36.567,66.271,38.581,53.856,49.48,38.482,43.668,20.955,19.081,19.404,16.594,30.665,30.245,29.428,26.227,39.908,38.264,36.491,33.759,57.475,39.597,47.128,48.169,45.086,46.421,5.365,11.242,8.955,13.766,18.862,16.723,16.492,25.863,26.546,25.372,24.5,59.304,43.36,37.698,33.604,31.968,25.766,14.267,7.88,13.055,15.409,18.217,14.797,24.313,23.731,24.982,22.811,54.44,43.225,33.829,33.426,36.503,29.495,9.437,20.235,25.476,13.977,17.716,30.578,32.255,24.766,25.287,63.132,34.8,47.019,35.557,26.039,30.153,15.02,17.419,13.769,11.32,24.827,24.932,21.396,19.697,54.17,35.483,38.746,32.26,33.301,32.166,9.265,13.632,10.522,12.28,14.109,15.943,14.821,51.729,42.963,29.581,20.966,33.76,23.522,19.566,11.317,11.613,8.603,18.072,13.753,42.783,43.612,23.094,23.089,42.192,32.212,10.045,19.597,23.13,11.472,14.085,57.206,31.623,42.22,22.029,24.167,26.521,15.088,15.902,11.126,8.44,47.745,33.194,34.328,22.019,34.147,31.729,6.583,13.205,11.561,45.351,43.91,26.874,11.977,39.86,29.836,17.23,13.205,39.79,45.459,21.676,17.823,45.078,34.398,6.216,49.794,31.58,38.741,13.287,32.044,31.936,44.204,32.61,34.287,16.108,37.021,34.822,60.812,38.084,51.866,81.071,74.016,64.895,42.875,41.723,57.021,37.299,62.939,45.499,37.005,30.944,26.227,13.859,0.971,7.882,45.435,373.518,0.001
0.015999067285217064,0.008508000000000016,0.244619,15.565,0.767,7.882,45.647,0.0052779564451086,-0.00202007615852623,-0.00105864432827659,1.196046,1.049039,0.88768,,,,,,,,,,,,,,,,,,,,,,,,,0.242492,5.824,13.554,13.261,14.523,14.612,17.619,16.823,27.398,29.481,29.079,27.657,38.877,37.995,37.902,36.034,63.755,48.189,44.755,47.543,41.388,37.965,14.666,9.961,15.647,13.696,19.221,15.668,26.673,26.935,29.139,25.813,37.222,35.493,36.646,33.917,58.517,46.679,41.641,46.594,44.481,40.707,10.27,20.852,21.61,15.38,18.096,32.553,34.868,28.33,28.728,42.894,42.741,37.639,36.541,66.216,38.583,53.835,49.511,38.49,43.701,20.941,19.066,19.393,16.571,30.64,30.205,29.415,26.195,39.876,38.213,36.459,33.712,57.404,39.576,47.104,48.186,45.094,46.459,5.37,11.231,8.959,13.754,18.844,16.724,16.476,25.83,26.496,25.347,24.464,59.212,43.347,37.658,33.626,31.999,25.822,14.264,7.887,13.045,15.384,18.223,14.78,24.283,23.681,24.957,22.773,54.344,43.212,33.79,33.451,36.539,29.558,9.433,20.221,25.457,13.978,17.702,30.553,32.212,24.752,25.26,63.053,34.803,46.98,35.582,26.063,30.185,15.021,17.407,13.776,11.307,24.815,24.899,21.381,19.667,54.089,35.465,38.727,32.296,33.329,32.226,9.27,13.635,10.522,12.256,14.07,15.924,14.799,51.634,42.951,29.544,20.998,33.793,23.578,19.57,11.313,11.62,8.583,18.06,13.734,42.686,43.59,23.077,23.138,42.225,32.276,10.05,19.586,23.105,11.46,14.07,57.125,31.612,42.194,22.057,24.19,26.557,15.091,15.883,11.121,8.422,47.665,33.181,34.31,22.068,34.174,31.777,6.581,13.199,11.572,45.275,43.909,26.84,12.016,39.874,29.845,17.208,13.192,39.719,45.441,21.657,17.858,45.081,34.412,6.218,49.709,31.582,38.703,13.324,32.067,31.953,44.124,32.602,34.26,16.165,37.039,34.849,60.758,38.04,51.798,81.013,73.966,64.876,42.896,41.724,57.039,37.284,62.929,45.492,37.038,30.961,26.245,14.712,0.881,7.882,45.01,429.185,0.001
0.019998834106521302,0.010635000000000006,0.246746,17.058,0.738,7.882,45.647,0.00764211009166007,-0.00251834379222181,-0.000260743274831323,1.197204,1.050079,0.887419,,,,,,,,,,,,,,,,,,,,,,,,,0.244619,5.807,13.541,13.243,14.526,14.626,17.618,16.851,27.392,29.478,29.083,27.637,38.865,37.959,37.879,36.006,63.681,48.177,44.719,47.587,41.421,38.016,14.674,9.969,15.619,13.68,19.205,15.671,26.638,26.908,29.121,25.771,37.192,35.441,36.604,33.87,58.45,46.665,41.598,46.619,44.493,40.729,10.276,20.844,21.62,15.386,18.123,32.545,34.87,28.339,28.722,42.893,42.722,37.628,36.527,66.18,38.598,53.814,49.562,38.495,43.723,20.914,19.051,19.375,16.555,30.605,30.176,29.394,26.149,39.854,38.172,36.417,33.663,57.355,39.553,47.081,48.215,45.091,46.48,5.375,11.216,8.981,13.748,18.849,16.719,16.462,25.81,26.455,25.319,24.437,59.114,43.328,37.61,33.662,32.038,25.874,14.261,7.899,13.023,15.372,18.214,14.749,24.256,23.628,24.921,22.732,54.24,43.189,33.74,33.482,36.579,29.611,9.456,20.207,25.455,13.982,17.701,30.534,32.177,24.731,25.241,62.972,34.808,46.934,35.618,26.084,30.202,15.001,17.385,13.766,11.262,24.787,24.847,21.333,19.61,53.974,35.428,38.683,32.324,33.373,32.285,9.28,13.625,10.515,12.236,14.026,15.899,14.776,51.509,42.923,29.492,21.043,33.844,23.643,19.57,11.297,11.635,8.553,18.045,13.709,42.553,43.557,23.047,23.199,42.282,32.353,10.07,19.566,23.075,11.435,14.057,57.019,31.603,42.146,22.089,24.23,26.582,15.106,15.864,11.128,8.412,47.548,33.167,34.269,22.147,34.234,31.837,6.59,13.195,11.594,45.179,43.899,26.807,12.058,39.895,29.851,17.196,13.19,39.626,45.423,21.626,17.909,45.099,34.421,6.228,49.599,31.567,38.662,13.384,32.094,31.968,44.009,32.578,34.229,16.247,37.077,34.885,60.682,37.995,51.708,80.943,73.891,64.846,42.915,41.723,57.046,37.275,62.919,45.471,37.081,30.978,26.271,15.565,0.767,7.882,45.647,487.382,0.001
0.024000481401178348,0.012763000000000024,0.248874,18.977,0.717,7.882,45.647,0.00930273017217271,-0.00308786109805106,2.33712314491058e-05,1.198223,1.049208,0.887464,,,,,,,,,,,,,,,,,,,,,,,,,0.246746,5.831,13.523,13.232,14.518,14.639,17.598,16.846,27.379,29.488,29.074,27.637,38.836,37.926,37.86,35.99,63.694,48.174,44.699,47.625,41.437,38.054,14.692,9.958,15.603,13.67,19.198,15.658,26.617,26.896,29.113,25.757,37.155,35.393,36.586,33.846,58.445,46.662,41.565,46.657,44.529,40.78,10.304,20.841,21.632,15.378,18.129,32.537,34.888,28.34,28.743,42.881,42.71,37.626,36.535,66.235,38.632,53.808,49.615,38.489,43.741,20.887,19.027,19.357,16.528,30.579,30.158,29.374,26.133,39.822,38.133,36.401,33.644,57.383,39.555,47.065,48.256,45.102,46.514,5.381,11.217,8.98,13.727,18.848,16.723,16.457,25.767,26.404,25.292,24.408,59.063,43.324,37.543,33.693,32.107,25.946,14.27,7.9,13.009,15.361,18.217,14.734,24.215,23.573,24.899,22.7,54.184,43.176,33.682,33.519,36.652,29.698,9.458,20.19,25.464,13.984,17.715,30.506,32.148,24.71,25.229,62.956,34.822,46.888,35.654,26.122,30.236,14.999,17.393,13.771,11.269,24.77,24.822,21.326,19.599,53.952,35.419,38.655,32.38,33.428,32.357,9.312,13.619,10.512,12.212,14.003,15.884,14.757,51.456,42.904,29.446,21.089,33.903,23.719,19.583,11.285,11.631,8.515,18.058,13.693,42.469,43.533,23.009,23.267,42.368,32.464,10.087,19.546,23.058,11.4,14.038,56.971,31.589,42.103,22.126,24.292,26.641,15.087,15.834,11.136,8.394,47.489,33.16,34.225,22.209,34.312,31.918,6.601,13.202,11.588,45.122,43.883,26.762,12.121,39.94,29.891,17.216,13.187,39.566,45.407,21.584,17.982,45.151,34.475,6.254,49.579,31.556,38.642,13.439,32.113,31.988,43.966,32.568,34.198,16.313,37.124,34.933,60.665,37.993,51.677,80.954,73.896,64.822,42.941,41.738,57.077,37.266,62.925,45.465,37.137,31.009,26.309,17.058,0.738,7.882,45.647,559.185,0.001
0.028000248222482534,0.014889999999999987,0.251001,20.469,0.706,7.882,46.496,0.0109184997230282,-0.00319930305277907,0.000606693836807898,1.200614,1.050173,0.88655,,,,,,,,,,,,,,,,,,,,,,,,,0.248874,5.836,13.529,13.217,14.504,14.667,17.583,16.872,27.369,29.511,29.064,27.65,38.825,37.901,37.843,35.99,63.572,48.153,44.662,47.674,41.461,38.06,14.718,9.965,15.564,13.657,19.189,15.668,26.587,26.893,29.103,25.759,37.131,35.371,36.573,33.844,58.323,46.653,41.525,46.706,44.562,40.788,10.294,20.851,21.646,15.388,18.168,32.544,34.911,28.358,28.774,42.884,42.722,37.63,36.555,66.133,38.62,53.8,49.685,38.518,43.762,20.842,18.984,19.331,16.517,30.545,30.145,29.364,26.131,39.801,38.143,36.392,33.646,57.296,39.538,47.063,48.313,45.116,46.518,5.394,11.222,8.985,13.716,18.858,16.714,16.456,25.742,26.332,25.261,24.384,58.851,43.295,37.451,33.734,32.19,26.01,14.268,7.868,12.984,15.346,18.188,14.694,24.175,23.499,24.848,22.646,53.951,43.106,33.612,33.55,36.727,29.789,9.489,20.188,25.483,13.986,17.739,30.491,32.118,24.687,25.228,62.791,34.809,46.835,35.698,26.168,30.254,14.975,17.378,13.768,11.255,24.734,24.783,21.293,19.569,53.749,35.381,38.603,32.421,33.502,32.419,9.333,13.609,10.498,12.195,13.908,15.86,14.726,51.215,42.873,29.36,21.144,33.993,23.826,19.597,11.268,11.637,8.487,18.067,13.671,42.205,43.489,22.977,23.35,42.47,32.6,10.114,19.523,23.023,11.369,14.035,56.782,31.593,42.044,22.162,24.348,26.666,15.063,15.822,11.138,8.377,47.271,33.141,34.187,22.277,34.399,32.001,6.534,13.194,11.56,44.891,43.853,26.723,12.189,39.998,29.972,17.237,13.215,39.446,45.442,21.55,18.019,45.159,34.448,6.279,49.417,31.554,38.63,13.498,32.128,32.007,43.773,32.562,34.186,16.38,37.176,34.985,60.541,37.948,51.518,80.817,73.754,64.823,42.979,41.75,57.095,37.267,62.905,45.414,37.184,31.057,26.333,18.977,0.717,7.882,45.647,637.923,0.002
0.03200001504378688,0.017017000000000032,0.253128,21.962,0.692,7.882,46.496,0.0110396382762918,-0.00254881063620993,0.00138773013754408,1.201933,1.048694,0.886387,,,,,,,,,,,,,,,,,,,,,,,,,0.251001,5.849,13.533,13.201,14.492,14.71,17.574,16.908,27.363,29.532,29.07,27.672,38.807,37.891,37.841,36.005,63.534,48.137,44.641,47.71,41.487,38.098,14.733,9.939,15.539,13.659,19.175,15.67,26.57,26.898,29.106,25.767,37.11,35.354,36.568,33.854,58.274,46.632,41.499,46.741,44.598,40.833,10.319,20.843,21.689,15.393,18.229,32.548,34.949,28.379,28.821,42.882,42.734,37.648,36.592,66.119,38.622,53.798,49.741,38.543,43.806,20.796,18.956,19.313,16.507,30.517,30.143,29.369,26.143,39.779,38.128,36.398,33.667,57.262,39.543,47.033,48.354,45.15,46.552,5.447,11.203,8.995,13.71,18.868,16.71,16.454,25.71,26.302,25.238,24.368,58.761,43.243,37.411,33.763,32.248,26.093,14.298,7.853,12.957,15.304,18.198,14.662,24.116,23.427,24.815,22.606,53.804,43.057,33.528,33.564,36.827,29.898,9.548,20.17,25.494,13.987,17.758,30.454,32.092,24.669,25.22,62.715,34.778,46.792,35.725,26.224,30.305,14.941,17.342,13.791,11.232,24.675,24.719,21.268,19.535,53.61,35.345,38.523,32.441,33.612,32.514,9.349,13.601,10.473,12.165,13.879,15.836,14.698,51.123,42.82,29.326,21.178,34.053,23.908,19.626,11.261,11.641,8.464,18.086,13.682,42.101,43.466,22.934,23.403,42.555,32.689,10.149,19.494,23.013,11.351,14.028,56.718,31.562,42.019,22.19,24.399,26.711,15.023,15.785,11.14,8.366,47.172,33.122,34.139,22.312,34.485,32.072,6.545,13.176,11.533,44.838,43.81,26.716,12.222,40.021,29.994,17.241,13.211,39.387,45.416,21.53,18.057,45.2,34.48,6.278,49.37,31.532,38.614,13.532,32.16,32.028,43.72,32.543,34.171,16.402,37.217,35.016,60.489,37.914,51.476,80.804,73.731,64.785,42.981,41.758,57.102,37.27,62.922,45.419,37.237,31.087,26.363,20.469,0.706,7.882,46.496,721.272,0.002
0.03599978186509112,0.019144000000000022,0.255255,23.454,0.674,7.882,46.496,0.00987120013028629,-0.00196356132123893,0.00322953923763951,1.201888,1.048307,0.88768,,,,,,,,,,,,,,,,,,,,,,,,,0.253128,5.89,13.524,13.186,14.512,14.785,17.571,16.95,27.392,29.6,29.098,27.728,38.851,37.925,37.874,36.083,63.518,48.104,44.575,47.817,41.494,38.104,14.767,9.947,15.516,13.676,19.182,15.692,26.549,26.896,29.132,25.796,37.127,35.352,36.595,33.917,58.218,46.615,41.389,46.83,44.642,40.844,10.291,20.855,21.721,15.411,18.261,32.563,34.959,28.41,28.859,42.891,42.747,37.668,36.652,66.08,38.581,53.715,49.825,38.55,43.813,20.745,18.939,19.278,16.502,30.481,30.107,29.376,26.156,39.788,38.139,36.418,33.73,57.252,39.505,46.966,48.433,45.149,46.541,5.437,11.199,8.964,13.704,18.895,16.707,16.443,25.679,26.244,25.21,24.358,58.606,43.186,37.24,33.821,32.346,26.155,14.294,7.828,12.916,15.301,18.188,14.636,24.087,23.37,24.786,22.597,53.652,42.988,33.377,33.615,36.915,29.962,9.542,20.178,25.51,13.987,17.768,30.413,32.057,24.643,25.224,62.605,34.738,46.652,35.771,26.277,30.309,14.917,17.332,13.803,11.24,24.656,24.696,21.266,19.561,53.504,35.304,38.404,32.507,33.688,32.55,9.39,13.627,10.447,12.131,13.785,15.831,14.664,50.914,42.784,29.135,21.269,34.234,24.058,19.673,11.234,11.738,8.461,18.125,13.68,41.845,43.375,22.84,23.55,42.749,32.91,10.183,19.442,22.991,11.32,14.021,56.615,31.553,41.903,22.228,24.494,26.728,14.998,15.76,11.158,8.382,47.033,33.093,34.033,22.386,34.614,32.15,6.578,13.136,11.48,44.744,43.76,26.69,12.26,40.092,30.044,17.262,13.218,39.288,45.409,21.461,18.131,45.293,34.521,6.275,49.307,31.535,38.559,13.573,32.231,32.041,43.639,32.541,34.121,16.416,37.305,35.049,60.431,37.916,51.399,80.804,73.674,64.714,43.006,41.792,57.103,37.266,62.892,45.335,37.37,31.175,26.402,21.962,0.692,7.882,46.496,799.5,0.002
0.03999954868639536,0.021271000000000012,0.257382,24.947,0.656,7.882,46.709,0.00687889928892424,-0.00129582646861548,0.00447855691779169,1.200889,1.048871,0.889475,,,,,,,,,,,,,,,,,,,,,,,,,0.255255,5.912,13.519,13.14,14.522,14.827,17.567,16.963,27.408,29.635,29.115,27.764,38.862,37.939,37.907,36.142,63.578,48.091,44.523,47.885,41.511,38.109,14.817,9.943,15.507,13.683,19.198,15.711,26.54,26.897,29.156,25.823,37.123,35.344,36.635,33.973,58.259,46.626,41.314,46.889,44.695,40.855,10.275,20.864,21.751,15.41,18.268,32.572,34.983,28.435,28.897,42.899,42.766,37.711,36.72,66.17,38.58,53.685,49.886,38.544,43.807,20.703,18.92,19.243,16.489,30.458,30.107,29.383,26.177,39.789,38.151,36.463,33.796,57.366,39.51,46.951,48.487,45.15,46.522,5.445,11.206,8.954,13.702,18.904,16.709,16.451,25.657,26.22,25.211,24.377,58.586,43.164,37.125,33.869,32.43,26.196,14.309,7.832,12.898,15.289,18.188,14.631,24.059,23.334,24.785,22.606,53.621,42.954,33.273,33.654,37.007,30.019,9.526,20.182,25.525,14.001,17.792,30.4,32.054,24.658,25.263,62.627,34.725,46.574,35.819,26.327,30.321,14.915,17.352,13.811,11.268,24.657,24.706,21.295,19.611,53.537,35.275,38.365,32.563,33.751,32.585,9.4,13.617,10.428,12.106,13.75,15.813,14.644,50.85,42.747,29.029,21.322,34.367,24.166,19.687,11.224,11.759,8.451,18.147,13.682,41.773,43.331,22.797,23.617,42.891,33.034,10.204,19.413,22.985,11.314,14.04,56.616,31.556,41.829,22.256,24.599,26.754,14.977,15.749,11.182,8.403,47.011,33.069,33.987,22.425,34.74,32.226,6.596,13.11,11.439,44.706,43.73,26.655,12.301,40.202,30.116,17.28,13.212,39.245,45.399,21.426,18.182,45.417,34.595,6.299,49.326,31.553,38.532,13.565,32.33,32.067,43.625,32.546,34.099,16.406,37.433,35.112,60.466,38.013,51.352,80.916,73.709,64.702,43.005,41.852,57.126,37.255,62.896,45.257,37.531,31.292,26.448,23.454,0.674,7.882,46.496,859.268,0.003
0.043999315507699595,0.023398000000000002,0.259509,27.079,0.635,7.389,46.284,0.00315226427059896,-0.000290264576812872,0.00704933112063268,1.198824,1.049561,0.890058,,,,,,,,,,,,,,,,,,,,,,,,,0.257382,5.921,13.493,13.087,14.516,14.833,17.562,16.961,27.412,29.638,29.12,27.779,38.872,37.945,37.922,36.162,63.616,48.112,44.467,47.925,41.528,38.085,14.861,9.939,15.49,13.671,19.227,15.732,26.539,26.892,29.182,25.849,37.133,35.346,36.668,34.003,58.295,46.703,41.242,46.922,44.756,40.839,10.287,20.871,21.77,15.42,18.275,32.592,35.014,28.466,28.946,42.936,42.797,37.763,36.783,66.251,38.652,53.67,49.95,38.58,43.8,20.666,18.893,19.234,16.477,30.455,30.117,29.396,26.204,39.811,38.17,36.505,33.84,57.447,39.603,46.933,48.517,45.197,46.507,5.442,11.226,8.954,13.694,18.878,16.724,16.452,25.648,26.193,25.216,24.382,58.549,43.17,37.029,33.915,32.504,26.228,14.333,7.86,12.906,15.275,18.21,14.641,24.065,23.324,24.804,22.618,53.595,42.975,33.2,33.694,37.09,30.062,9.511,20.185,25.531,14.011,17.811,30.406,32.049,24.67,25.29,62.625,34.719,46.531,35.871,26.384,30.35,14.938,17.381,13.816,11.294,24.687,24.727,21.319,19.643,53.55,35.273,38.363,32.605,33.813,32.634,9.396,13.619,10.428,12.104,13.732,15.812,14.645,50.807,42.745,28.978,21.358,34.438,24.229,19.693,11.226,11.777,8.459,18.168,13.685,41.742,43.365,22.783,23.615,42.974,33.088,10.213,19.411,22.966,11.308,14.058,56.574,31.531,41.802,22.299,24.699,26.839,14.98,15.732,11.197,8.409,46.967,33.082,33.978,22.425,34.846,32.306,6.583,13.109,11.434,44.652,43.742,26.657,12.279,40.28,30.189,17.269,13.183,39.208,45.415,21.46,18.125,45.48,34.644,6.334,49.286,31.558,38.546,13.546,32.426,32.15,43.553,32.576,34.106,16.368,37.56,35.209,60.532,38.147,51.162,80.977,73.72,64.781,42.968,41.893,57.171,37.227,62.891,45.166,37.718,31.512,26.487,24.947,0.656,7.882,46.709,903.92,0.003
0.04799908232900384,0.025524999999999992,0.261636,29.424,0.624,7.389,46.709,-0.00115203949206426,0.000758517689712186,0.00842298542573795,1.194954,1.046748,0.888768,,,,,,,,,,,,,,,,,,,,,,,,,0.259509,5.934,13.482,13.019,14.525,14.85,17.58,16.938,27.433,29.651,29.14,27.787,38.884,37.942,37.923,36.182,63.606,48.164,44.42,48.01,41.583,38.097,14.904,9.931,15.5,13.678,19.277,15.738,26.558,26.899,29.216,25.868,37.144,35.326,36.671,34.028,58.275,46.798,41.174,46.967,44.838,40.853,10.243,20.881,21.799,15.442,18.276,32.617,35.044,28.486,28.974,42.952,42.797,37.768,36.802,66.237,38.718,53.64,49.99,38.613,43.809,20.638,18.892,19.223,16.475,30.473,30.158,29.399,26.237,39.838,38.171,36.499,33.87,57.49,39.702,46.927,48.507,45.205,46.486,5.455,11.239,8.919,13.698,18.869,16.745,16.442,25.642,26.188,25.223,24.398,58.511,43.214,36.961,34.027,32.576,26.246,14.373,7.86,12.916,15.261,18.24,14.64,24.062,23.303,24.806,22.638,53.551,43.044,33.122,33.759,37.179,30.088,9.503,20.196,25.547,14.016,17.82,30.401,32.051,24.674,25.298,62.589,34.752,46.49,35.942,26.414,30.357,14.953,17.409,13.829,11.325,24.702,24.732,21.327,19.678,53.538,35.35,38.33,32.635,33.856,32.635,9.392,13.633,10.419,12.095,13.748,15.827,14.681,50.775,42.795,28.927,21.454,34.506,24.249,19.701,11.229,11.784,8.432,18.157,13.73,41.724,43.445,22.738,23.578,43.041,33.098,10.204,19.397,22.972,11.316,14.048,56.495,31.532,41.767,22.35,24.77,26.899,14.964,15.705,11.166,8.419,46.912,33.15,33.938,22.359,34.904,32.324,6.65,13.104,11.469,44.623,43.776,26.654,12.25,40.328,30.211,17.259,13.204,39.122,45.445,21.441,18.078,45.573,34.722,6.274,49.147,31.549,38.511,13.476,32.536,32.256,43.475,32.586,34.123,16.212,37.623,35.279,60.503,38.268,50.781,80.964,73.719,64.842,42.787,41.87,57.215,37.198,62.907,45.106,37.992,31.916,26.574,27.079,0.635,7.389,46.284,930.826,0.003
0.05199884915030818,0.027652000000000038,0.263763,31.983,0.628,7.389,47.346,-0.00427616446105613,0.00248158097956878,0.0103436087349581,1.193664,1.046237,0.885155,,,,,,,,,,,,,,,,,,,,,,,,,0.261636,5.87,13.504,12.972,14.555,14.87,17.63,16.952,27.46,29.646,29.17,27.803,38.887,37.93,37.929,36.195,63.558,48.191,44.4,48.038,41.661,38.157,14.916,9.933,15.487,13.682,19.286,15.748,26.568,26.898,29.213,25.876,37.136,35.314,36.658,34.035,58.27,46.82,41.173,46.972,44.853,40.854,10.234,20.893,21.841,15.452,18.285,32.633,35.048,28.48,28.979,42.947,42.787,37.751,36.804,66.227,38.722,53.645,49.993,38.625,43.819,20.63,18.916,19.231,16.495,30.49,30.165,29.394,26.248,39.836,38.165,36.488,33.879,57.494,39.723,46.933,48.515,45.216,46.487,5.458,11.256,8.897,13.699,18.853,16.756,16.444,25.628,26.166,25.215,24.403,58.487,43.243,36.94,34.034,32.617,26.261,14.422,7.895,12.921,15.242,18.273,14.665,24.047,23.276,24.813,22.658,53.527,43.105,33.08,33.769,37.233,30.093,9.493,20.203,25.548,14.007,17.824,30.391,32.038,24.657,25.301,62.585,34.773,46.489,35.94,26.421,30.35,14.952,17.409,13.81,11.329,24.687,24.717,21.306,19.682,53.546,35.381,38.328,32.629,33.854,32.613,9.398,13.647,10.437,12.084,13.739,15.828,14.701,50.775,42.831,28.919,21.456,34.526,24.239,19.705,11.237,11.778,8.421,18.155,13.743,41.719,43.473,22.731,23.585,43.063,33.099,10.199,19.397,22.965,11.306,14.051,56.484,31.546,41.767,22.357,24.794,26.909,14.956,15.692,11.146,8.418,46.903,33.169,33.937,22.356,34.924,32.327,6.65,13.109,11.475,44.619,43.798,26.647,12.262,40.344,30.207,17.254,13.202,39.117,45.458,21.441,18.087,45.587,34.721,6.267,49.138,31.562,38.507,13.491,32.554,32.259,43.464,32.601,34.125,16.215,37.647,35.288,60.509,38.264,50.774,80.976,73.714,64.86,42.803,41.895,57.235,37.199,62.923,45.106,38.012,31.922,26.584,29.424,0.624,7.389,46.709,948.267,0.003
0.056000496444965124,0.02978,0.265891,34.542,0.628,6.897,47.558,-0.00727732311217484,0.0039215786003126,0.011115291386464,1.196591,1.047273,0.883,,,,,,,,,,,,,,,,,,,,,,,,,0.263763,5.887,13.481,12.939,14.554,14.858,17.643,16.915,27.456,29.62,29.185,27.811,38.85,37.892,37.912,36.181,63.412,48.271,44.344,48.077,41.694,38.161,14.956,9.962,15.527,13.718,19.363,15.787,26.589,26.885,29.276,25.923,37.117,35.291,36.679,34.053,58.12,46.958,41.089,47.021,44.944,40.879,10.195,20.905,21.867,15.48,18.298,32.64,35.042,28.496,29.006,42.929,42.77,37.753,36.809,66.09,38.849,53.597,50.023,38.68,43.833,20.66,18.987,19.259,16.561,30.525,30.195,29.427,26.306,39.845,38.186,36.51,33.912,57.404,39.847,46.915,48.545,45.264,46.502,5.426,11.276,8.84,13.702,18.847,16.799,16.474,25.606,26.142,25.223,24.416,58.367,43.329,36.918,34.105,32.652,26.249,14.448,7.904,12.913,15.246,18.32,14.723,24.023,23.261,24.832,22.693,53.443,43.229,33.045,33.817,37.257,30.036,9.462,20.204,25.549,14.004,17.837,30.369,32.02,24.643,25.298,62.454,34.845,46.479,35.977,26.446,30.353,14.919,17.408,13.803,11.366,24.653,24.7,21.301,19.7,53.464,35.501,38.302,32.634,33.853,32.544,9.4,13.686,10.442,12.059,13.715,15.832,14.712,50.655,42.87,28.931,21.519,34.565,24.235,19.739,11.249,11.76,8.41,18.17,13.766,41.605,43.522,22.72,23.597,43.113,33.091,10.206,19.41,22.976,11.295,14.054,56.352,31.54,41.808,22.398,24.844,26.961,14.921,15.673,11.114,8.396,46.765,33.204,33.937,22.318,34.976,32.334,6.627,13.122,11.481,44.494,43.802,26.668,12.303,40.394,30.209,17.262,13.216,39.022,45.48,21.458,18.072,45.623,34.697,6.264,48.998,31.547,38.534,13.462,32.62,32.289,43.325,32.601,34.145,16.149,37.712,35.312,60.372,38.178,50.513,80.901,73.596,64.883,42.68,41.988,57.291,37.26,62.981,45.121,38.17,32.122,26.612,31.983,0.628,7.389,47.346,965.401,0.004
0.06000026326626936,0.03190699999999999,0.268018,36.674,0.638,6.897,48.832,-0.00961605496481258,0.00600047322891807,0.012139551282756,1.199328,1.048579,0.881185,,,,,,,,,,,,,,,,,,,,,,,,,0.265891,5.85,13.482,12.922,14.572,14.855,17.677,16.948,27.451,29.603,29.218,27.845,38.839,37.854,37.93,36.199,63.308,48.298,44.301,48.1,41.739,38.202,14.958,9.951,15.54,13.736,19.387,15.825,26.583,26.884,29.304,25.963,37.113,35.268,36.697,34.082,58.048,46.984,41.068,47.043,44.963,40.904,10.248,20.9,21.877,15.483,18.324,32.618,35.028,28.508,29.029,42.915,42.74,37.758,36.831,66.032,38.885,53.576,50.035,38.67,43.827,20.696,19.033,19.331,16.627,30.533,30.198,29.492,26.362,39.858,38.176,36.553,33.969,57.326,39.911,46.889,48.591,45.323,46.552,5.408,11.283,8.852,13.693,18.84,16.817,16.515,25.597,26.112,25.239,24.43,58.292,43.352,36.895,34.122,32.663,26.259,14.465,7.936,12.894,15.248,18.345,14.782,24.014,23.237,24.858,22.726,53.39,43.272,33.02,33.834,37.26,30.026,9.488,20.193,25.545,14.018,17.874,30.365,31.997,24.658,25.32,62.399,34.877,46.47,35.995,26.432,30.347,14.875,17.371,13.796,11.366,24.613,24.644,21.28,19.688,53.375,35.506,38.272,32.617,33.852,32.548,9.381,13.679,10.442,12.053,13.682,15.838,14.695,50.562,42.856,28.92,21.538,34.581,24.278,19.731,11.243,11.748,8.389,18.164,13.76,41.528,43.506,22.727,23.6,43.114,33.114,10.219,19.4,22.952,11.299,14.054,56.283,31.55,41.801,22.403,24.846,26.972,14.901,15.641,11.093,8.38,46.673,33.186,33.936,22.308,34.994,32.376,6.61,13.127,11.454,44.41,43.793,26.66,12.318,40.407,30.236,17.252,13.196,38.961,45.463,21.464,18.074,45.612,34.701,6.239,48.916,31.533,38.534,13.473,32.641,32.328,43.264,32.611,34.142,16.122,37.714,35.319,60.311,38.122,50.427,80.838,73.541,64.877,42.675,42.0,57.313,37.257,62.979,45.127,38.205,32.166,26.622,34.542,0.628,6.897,47.558,977.11,0.004
0.06400003008757371,0.034034000000000036,0.270145,38.593,0.638,6.897,49.257,-0.0098846829796978,0.00690819289985368,0.0126895111133336,1.197782,1.047656,0.878249,,,,,,,,,,,,,,,,,,,,,,,,,0.268018,5.901,13.471,12.908,14.566,14.848,17.704,16.933,27.434,29.587,29.248,27.865,38.822,37.817,37.946,36.208,63.216,48.369,44.251,48.116,41.791,38.179,14.99,9.95,15.578,13.759,19.473,15.855,26.578,26.855,29.371,26.001,37.101,35.236,36.736,34.105,57.921,47.083,40.978,47.053,45.069,40.916,10.228,20.893,21.861,15.505,18.315,32.599,34.987,28.54,29.04,42.898,42.7,37.783,36.839,65.905,38.985,53.508,50.039,38.753,43.83,20.708,19.048,19.373,16.661,30.526,30.173,29.544,26.403,39.86,38.174,36.601,34.006,57.237,40.028,46.826,48.586,45.396,46.548,5.395,11.303,8.829,13.696,18.858,16.851,16.548,25.597,26.075,25.262,24.452,58.211,43.39,36.881,34.168,32.686,26.235,14.474,7.918,12.873,15.256,18.361,14.808,24.003,23.206,24.868,22.74,53.319,43.303,33.0,33.841,37.265,29.983,9.485,20.198,25.548,14.037,17.894,30.365,31.963,24.675,25.333,62.302,34.91,46.46,36.024,26.452,30.346,14.845,17.355,13.815,11.398,24.602,24.617,21.304,19.713,53.297,35.562,38.237,32.611,33.858,32.507,9.392,13.693,10.433,12.047,13.609,15.838,14.689,50.445,42.836,28.901,21.576,34.6,24.291,19.737,11.223,11.756,8.387,18.156,13.742,41.401,43.449,22.722,23.573,43.131,33.144,10.224,19.395,22.902,11.298,14.053,56.166,31.533,41.793,22.412,24.848,26.987,14.883,15.607,11.086,8.371,46.555,33.165,33.912,22.251,35.001,32.378,6.535,13.116,11.444,44.299,43.748,26.646,12.303,40.403,30.238,17.208,13.177,38.943,45.421,21.475,17.969,45.542,34.614,6.239,48.792,31.504,38.511,13.402,32.64,32.336,43.142,32.574,34.116,16.019,37.714,35.324,60.131,38.039,50.148,80.719,73.436,64.811,42.525,42.022,57.326,37.225,62.981,45.123,38.296,32.342,26.649,36.674,0.638,6.897,48.832,985.208,0.004
0.06799979690887795,0.036161000000000026,0.272272,40.299,0.621,6.404,49.893,-0.0113786122364755,0.00827652202441627,0.0138177455009426,1.199964,1.047057,0.877896,,,,,,,,,,,,,,,,,,,,,,,,,0.270145,5.883,13.489,12.909,14.572,14.858,17.732,16.943,27.429,29.578,29.28,27.875,38.808,37.789,37.965,36.225,63.16,48.384,44.192,48.139,41.833,38.193,14.994,9.952,15.591,13.78,19.495,15.874,26.579,26.857,29.401,26.019,37.095,35.221,36.758,34.131,57.884,47.088,40.941,47.077,45.094,40.931,10.237,20.899,21.866,15.506,18.312,32.587,34.972,28.552,29.043,42.879,42.669,37.79,36.848,65.868,38.993,53.464,50.045,38.749,43.819,20.733,19.068,19.405,16.689,30.531,30.171,29.581,26.429,39.859,38.16,36.63,34.04,57.206,40.041,46.793,48.61,45.418,46.564,5.403,11.323,8.841,13.695,18.867,16.882,16.565,25.59,26.06,25.286,24.473,58.174,43.407,36.832,34.197,32.712,26.23,14.486,7.917,12.854,15.245,18.369,14.802,23.977,23.174,24.868,22.741,53.266,43.29,32.95,33.847,37.282,29.987,9.488,20.199,25.552,14.056,17.907,30.359,31.948,24.694,25.349,62.276,34.922,46.426,36.044,26.444,30.33,14.831,17.348,13.821,11.404,24.585,24.593,21.311,19.726,53.266,35.554,38.2,32.618,33.854,32.497,9.394,13.696,10.418,12.037,13.591,15.843,14.684,50.385,42.813,28.857,21.603,34.627,24.316,19.733,11.205,11.749,8.369,18.148,13.735,41.335,43.401,22.699,23.582,43.149,33.18,10.223,19.379,22.879,11.296,14.042,56.12,31.524,41.755,22.411,24.853,26.984,14.86,15.576,11.087,8.378,46.512,33.148,33.873,22.246,35.005,32.378,6.53,13.105,11.423,44.243,43.713,26.612,12.323,40.417,30.256,17.189,13.157,38.889,45.369,21.456,17.976,45.547,34.633,6.22,48.741,31.487,38.475,13.389,32.653,32.346,43.109,32.552,34.09,15.988,37.71,35.322,60.062,37.999,50.071,80.679,73.402,64.749,42.483,42.014,57.318,37.206,62.965,45.112,38.334,32.395,26.665,38.593,0.638,6.897,49.257,984.127,0.004
0.07199956373018218,0.038288000000000016,0.274399,42.004,0.613,6.404,51.167,-0.0131452726674345,0.00957529322628308,0.0141697402183561,1.20084,1.047772,0.878234,,,,,,,,,,,,,,,,,,,,,,,,,0.272272,5.894,13.5,12.91,14.586,14.881,17.756,16.97,27.444,29.588,29.314,27.899,38.817,37.778,37.99,36.243,63.183,48.41,44.142,48.17,41.86,38.214,15.007,9.954,15.613,13.8,19.53,15.916,26.599,26.867,29.443,26.05,37.108,35.203,36.789,34.154,57.902,47.114,40.886,47.109,45.133,40.962,10.228,20.905,21.864,15.508,18.301,32.576,34.955,28.552,29.039,42.865,42.627,37.789,36.839,65.875,39.0,53.401,50.045,38.751,43.825,20.75,19.075,19.428,16.718,30.544,30.178,29.609,26.459,39.871,38.133,36.66,34.062,57.239,40.067,46.746,48.633,45.437,46.585,5.419,11.341,8.855,13.695,18.866,16.915,16.575,25.586,26.05,25.301,24.483,58.184,43.425,36.771,34.219,32.742,26.239,14.498,7.928,12.851,15.23,18.389,14.796,23.963,23.142,24.867,22.731,53.256,43.28,32.885,33.855,37.314,30.018,9.472,20.194,25.549,14.062,17.909,30.353,31.933,24.699,25.35,62.293,34.935,46.378,36.054,26.445,30.329,14.828,17.352,13.815,11.408,24.58,24.572,21.309,19.724,53.294,35.54,38.165,32.619,33.843,32.498,9.399,13.707,10.405,12.03,13.6,15.838,14.68,50.387,42.795,28.819,21.617,34.648,24.339,19.741,11.197,11.748,8.34,18.144,13.728,41.333,43.368,22.664,23.587,43.17,33.21,10.22,19.382,22.883,11.293,14.039,56.128,31.502,41.727,22.42,24.865,27.01,14.847,15.544,11.083,8.373,46.527,33.136,33.83,22.237,35.011,32.384,6.572,13.1,11.423,44.241,43.689,26.584,12.334,40.438,30.274,17.183,13.134,38.839,45.306,21.429,18.011,45.587,34.7,6.222,48.746,31.475,38.44,13.376,32.669,32.357,43.114,32.527,34.056,15.978,37.725,35.339,60.037,37.989,50.037,80.7,73.423,64.682,42.444,42.023,57.328,37.191,62.953,45.107,38.379,32.449,26.689,40.299,0.621,6.404,49.893,968.441,0.005
0.07599933055148643,0.040415000000000006,0.276526,44.136,0.599,6.404,52.017,-0.0138033274751803,0.0107485892173403,0.0149656835449152,1.201185,1.047597,0.877055,,,,,,,,,,,,,,,,,,,,,,,,,0.274399,5.885,13.508,12.905,14.585,14.865,17.775,16.977,27.433,29.587,29.327,27.913,38.814,37.759,37.995,36.252,63.053,48.439,44.106,48.19,41.903,38.221,15.026,9.979,15.623,13.808,19.568,15.94,26.598,26.879,29.473,26.086,37.12,35.205,36.815,34.183,57.787,47.168,40.848,47.139,45.184,40.973,10.209,20.907,21.855,15.512,18.299,32.564,34.946,28.552,29.047,42.864,42.609,37.792,36.839,65.732,39.032,53.361,50.059,38.786,43.836,20.763,19.093,19.446,16.73,30.546,30.193,29.627,26.493,39.894,38.151,36.687,34.088,57.13,40.111,46.725,48.66,45.471,46.601,5.397,11.36,8.873,13.692,18.871,16.935,16.593,25.586,26.025,25.308,24.501,58.062,43.439,36.742,34.249,32.773,26.244,14.505,7.94,12.846,15.252,18.404,14.827,23.974,23.139,24.882,22.761,53.158,43.297,32.868,33.883,37.327,30.009,9.497,20.198,25.556,14.066,17.926,30.361,31.916,24.704,25.362,62.17,34.942,46.359,36.082,26.46,30.34,14.818,17.342,13.825,11.416,24.581,24.55,21.312,19.727,53.15,35.542,38.125,32.634,33.877,32.52,9.388,13.721,10.394,12.029,13.556,15.836,14.689,50.256,42.773,28.786,21.646,34.674,24.365,19.742,11.188,11.746,8.331,18.135,13.727,41.209,43.338,22.638,23.58,43.182,33.225,10.219,19.393,22.859,11.29,14.044,55.997,31.474,41.705,22.446,24.875,27.036,14.845,15.523,11.074,8.369,46.396,33.119,33.795,22.227,35.022,32.394,6.531,13.106,11.447,44.138,43.672,26.549,12.338,40.445,30.275,17.161,13.136,38.781,45.281,21.413,17.971,45.555,34.658,6.229,48.627,31.451,38.406,13.369,32.667,32.362,42.983,32.488,34.029,15.967,37.735,35.365,59.881,37.9,49.885,80.578,73.322,64.622,42.391,42.014,57.328,37.158,62.945,45.103,38.42,32.515,26.715,42.004,0.613,6.404,51.167,945.268,0.005
0.07999909737279066,0.042541999999999996,0.278653,46.055,0.592,5.912,53.503,-0.014944924973127,0.0114701270700603,0.0158506548460032,1.202112,1.048088,0.875239,,,,,,,,,,,,,,,,,,,,,,,,,0.276526,5.898,13.527,12.886,14.599,14.886,17.812,16.994,27.453,29.575,29.361,27.946,38.82,37.748,38.015,36.28,62.944,48.5,44.089,48.226,41.956,38.249,15.068,10.0,15.635,13.828,19.608,15.966,26.602,26.845,29.504,26.111,37.111,35.185,36.827,34.204,57.662,47.234,40.803,47.153,45.239,40.991,10.165,20.914,21.878,15.532,18.304,32.584,34.936,28.576,29.072,42.876,42.605,37.813,36.866,65.611,39.093,53.348,50.092,38.828,43.87,20.753,19.116,19.431,16.737,30.555,30.183,29.633,26.519,39.907,38.167,36.701,34.121,57.05,40.164,46.724,48.675,45.47,46.601,5.388,11.361,8.866,13.709,18.875,16.949,16.613,25.587,26.001,25.311,24.513,57.96,43.457,36.742,34.281,32.786,26.254,14.507,7.956,12.834,15.238,18.406,14.843,23.958,23.111,24.872,22.768,53.062,43.323,32.852,33.886,37.327,29.991,9.471,20.209,25.548,14.069,17.93,30.358,31.886,24.703,25.364,62.04,34.958,46.346,36.106,26.477,30.365,14.826,17.343,13.822,11.438,24.588,24.545,21.314,19.747,53.051,35.559,38.124,32.647,33.867,32.519,9.394,13.736,10.397,12.01,13.497,15.824,14.679,50.135,42.771,28.762,21.661,34.692,24.381,19.752,11.19,11.772,8.347,18.136,13.739,41.091,43.321,22.62,23.596,43.198,33.251,10.214,19.396,22.825,11.286,14.036,55.866,31.461,41.693,22.468,24.878,27.063,14.843,15.505,11.056,8.365,46.269,33.107,33.777,22.213,35.02,32.407,6.483,13.103,11.448,44.045,43.664,26.522,12.339,40.44,30.262,17.124,13.126,38.744,45.266,21.405,17.917,45.505,34.597,6.207,48.495,31.442,38.369,13.359,32.665,32.368,42.867,32.476,34.003,15.925,37.721,35.362,59.712,37.828,49.712,80.446,73.224,64.579,42.341,42.009,57.347,37.119,62.944,45.101,38.466,32.585,26.753,44.136,0.599,6.404,52.017,912.06,0.005
0.0839988641940949,0.044668999999999986,0.28078,48.401,0.599,5.419,55.201,-0.0161511657815361,0.0124135298957487,0.0166094157370866,1.202064,1.047917,0.873333,,,,,,,,,,,,,,,,,,,,,,,,,0.278653,5.869,13.536,12.878,14.609,14.891,17.833,17.004,27.458,29.566,29.38,27.963,38.816,37.719,38.022,36.275,62.88,48.509,44.063,48.235,41.968,38.28,15.079,10.012,15.635,13.827,19.613,15.971,26.604,26.844,29.513,26.13,37.108,35.16,36.832,34.203,57.62,47.245,40.787,47.157,45.226,41.001,10.176,20.922,21.892,15.538,18.324,32.597,34.943,28.59,29.102,42.886,42.591,37.83,36.875,65.58,39.107,53.344,50.106,38.817,43.884,20.76,19.119,19.431,16.741,30.562,30.185,29.64,26.539,39.909,38.142,36.708,34.122,57.006,40.167,46.714,48.679,45.458,46.618,5.403,11.368,8.877,13.71,18.869,16.96,16.628,25.582,25.979,25.313,24.506,57.915,43.464,36.727,34.286,32.771,26.265,14.519,7.955,12.836,15.223,18.418,14.852,23.949,23.079,24.871,22.756,53.002,43.326,32.828,33.888,37.323,30.013,9.483,20.212,25.539,14.071,17.939,30.355,31.86,24.7,25.35,61.986,34.951,46.332,36.108,26.463,30.383,14.824,17.325,13.83,11.445,24.578,24.508,21.311,19.731,52.987,35.561,38.098,32.645,33.862,32.539,9.387,13.745,10.397,12.003,13.479,15.822,14.67,50.09,42.776,28.747,21.663,34.675,24.389,19.749,11.18,11.766,8.323,18.131,13.732,41.052,43.322,22.611,23.593,43.173,33.254,10.217,19.398,22.81,11.281,14.022,55.816,31.455,41.683,22.47,24.86,27.08,14.83,15.469,11.045,8.342,46.214,33.113,33.756,22.198,35.005,32.416,6.488,13.104,11.448,44.005,43.674,26.504,12.345,40.422,30.262,17.111,13.109,38.7,45.252,21.398,17.926,45.477,34.602,6.202,48.451,31.452,38.353,13.354,32.646,32.369,42.831,32.484,33.988,15.918,37.692,35.356,59.674,37.795,49.663,80.38,73.188,64.568,42.342,41.995,57.356,37.106,62.915,45.098,38.459,32.598,26.749,46.055,0.592,5.912,53.503,876.75,0.005
0.08800051148875195,0.046797000000000005,0.282908,50.533,0.606,4.926,56.9,-0.0164650565336095,0.0138766949387043,0.0169477597529953,1.201313,1.047596,0.870484,,,,,,,,,,,,,,,,,,,,,,,,,0.28078,5.838,13.548,12.873,14.617,14.892,17.84,17.023,27.46,29.541,29.395,27.967,38.796,37.687,38.015,36.267,62.817,48.519,44.031,48.25,41.985,38.311,15.074,10.016,15.635,13.835,19.605,15.991,26.612,26.834,29.523,26.142,37.095,35.141,36.828,34.201,57.584,47.255,40.774,47.174,45.216,41.017,10.177,20.933,21.906,15.539,18.344,32.604,34.928,28.603,29.109,42.875,42.565,37.826,36.873,65.529,39.117,53.327,50.128,38.828,43.913,20.765,19.132,19.43,16.759,30.568,30.168,29.649,26.544,39.892,38.112,36.7,34.114,56.951,40.176,46.69,48.692,45.459,46.642,5.396,11.373,8.883,13.706,18.845,16.969,16.631,25.562,25.95,25.303,24.499,57.867,43.467,36.707,34.3,32.762,26.283,14.524,7.972,12.834,15.203,18.429,14.864,23.928,23.051,24.865,22.754,52.961,43.338,32.805,33.899,37.308,30.022,9.485,20.214,25.522,14.084,17.942,30.345,31.835,24.698,25.35,61.941,34.956,46.318,36.133,26.461,30.407,14.815,17.297,13.821,11.433,24.546,24.465,21.284,19.708,52.935,35.555,38.076,32.642,33.839,32.55,9.382,13.747,10.406,11.989,13.464,15.815,14.671,50.06,42.775,28.743,21.674,34.642,24.391,19.739,11.175,11.756,8.313,18.121,13.727,41.029,43.312,22.61,23.601,43.132,33.254,10.213,19.389,22.785,11.269,14.019,55.776,31.446,41.676,22.486,24.831,27.096,14.816,15.441,11.029,8.331,46.176,33.104,33.749,22.204,34.973,32.429,6.476,13.102,11.444,43.971,43.662,26.493,12.361,40.387,30.264,17.09,13.085,38.672,45.221,21.407,17.925,45.428,34.602,6.203,48.415,31.443,38.342,13.374,32.61,32.374,42.791,32.477,33.975,15.931,37.662,35.367,59.632,37.762,49.619,80.311,73.161,64.55,42.341,41.973,57.363,37.097,62.882,45.103,38.448,32.618,26.741,48.401,0.599,5.419,55.201,845.051,0.005
0.0920002783100562,0.048923999999999995,0.285035,52.239,0.621,4.434,59.448,-0.0176277689690106,0.0152880368795712,0.0172509474789668,1.203327,1.047133,0.869124,,,,,,,,,,,,,,,,,,,,,,,,,0.282908,5.862,13.545,12.868,14.624,14.892,17.855,17.016,27.456,29.532,29.405,27.98,38.767,37.647,38.022,36.264,62.748,48.542,44.049,48.255,42.027,38.331,15.09,10.036,15.655,13.838,19.64,16.006,26.607,26.815,29.543,26.157,37.062,35.091,36.837,34.197,57.495,47.29,40.762,47.167,45.271,41.042,10.125,20.939,21.895,15.554,18.325,32.594,34.906,28.612,29.113,42.846,42.518,37.833,36.866,65.42,39.146,53.323,50.139,38.902,43.956,20.775,19.137,19.425,16.768,30.57,30.17,29.652,26.563,39.878,38.09,36.712,34.121,56.893,40.2,46.709,48.692,45.479,46.658,5.4,11.381,8.875,13.7,18.845,16.976,16.647,25.535,25.914,25.307,24.5,57.811,43.475,36.739,34.309,32.757,26.286,14.522,7.968,12.828,15.198,18.427,14.87,23.898,23.012,24.862,22.745,52.901,43.333,32.833,33.891,37.296,30.026,9.454,20.206,25.512,14.083,17.947,30.321,31.797,24.699,25.345,61.856,34.954,46.339,36.153,26.476,30.439,14.813,17.307,13.814,11.459,24.534,24.446,21.295,19.72,52.889,35.561,38.108,32.649,33.809,32.547,9.389,13.743,10.406,11.966,13.436,15.81,14.667,50.007,42.754,28.775,21.672,34.591,24.384,19.731,11.165,11.736,8.283,18.11,13.711,40.972,43.283,22.624,23.564,43.084,33.249,10.211,19.374,22.756,11.269,14.016,55.689,31.424,41.69,22.511,24.793,27.123,14.792,15.406,11.02,8.317,46.092,33.086,33.751,22.183,34.935,32.438,6.466,13.095,11.439,43.924,43.635,26.488,12.343,40.308,30.234,17.07,13.065,38.641,45.182,21.406,17.879,45.343,34.565,6.208,48.328,31.422,38.332,13.371,32.549,32.379,42.705,32.455,33.958,15.907,37.608,35.369,59.495,37.697,49.472,80.175,73.096,64.512,42.311,41.948,57.375,37.038,62.865,45.126,38.432,32.663,26.748,50.533,0.606,4.926,56.9,812.413,0.006
0.09600004513136043,0.051050999999999985,0.287162,53.731,0.617,3.941,59.023,-0.0200232056406893,0.0160603248402607,0.0168164778070378,1.203649,1.047096,0.869915,,,,,,,,,,,,,,,,,,,,,,,,,0.285035,5.834,13.541,12.881,14.627,14.89,17.859,17.027,27.444,29.512,29.412,27.975,38.732,37.607,38.021,36.248,62.658,48.536,44.042,48.252,42.041,38.374,15.077,10.049,15.653,13.83,19.633,16.025,26.596,26.804,29.545,26.155,37.032,35.06,36.841,34.189,57.428,47.289,40.766,47.161,45.261,41.067,10.149,20.941,21.892,15.553,18.331,32.581,34.882,28.613,29.101,42.82,42.48,37.84,36.856,65.332,39.15,53.315,50.143,38.921,43.994,20.804,19.143,19.453,16.805,30.572,30.152,29.672,26.56,39.86,38.055,36.731,34.118,56.787,40.207,46.698,48.697,45.512,46.718,5.426,11.387,8.878,13.691,18.836,16.988,16.659,25.505,25.887,25.307,24.49,57.745,43.471,36.744,34.312,32.741,26.311,14.535,7.974,12.821,15.175,18.443,14.872,23.864,22.973,24.86,22.727,52.811,43.32,32.824,33.887,37.295,30.072,9.441,20.201,25.497,14.088,17.946,30.304,31.772,24.705,25.338,61.782,34.945,46.345,36.168,26.473,30.477,14.792,17.287,13.795,11.445,24.5,24.41,21.283,19.699,52.824,35.545,38.115,32.633,33.769,32.557,9.384,13.75,10.422,11.943,13.42,15.801,14.654,49.947,42.734,28.784,21.675,34.552,24.403,19.721,11.157,11.714,8.262,18.094,13.687,40.912,43.248,22.645,23.543,43.036,33.264,10.215,19.371,22.742,11.266,14.005,55.62,31.395,41.7,22.528,24.759,27.156,14.795,15.392,11.029,8.307,46.019,33.053,33.763,22.188,34.904,32.475,6.461,13.092,11.438,43.879,43.626,26.471,12.35,40.255,30.219,17.053,13.044,38.59,45.148,21.409,17.865,45.287,34.566,6.213,48.276,31.422,38.324,13.361,32.497,32.372,42.649,32.445,33.949,15.895,37.558,35.368,59.417,37.645,49.387,80.07,73.049,64.493,42.3,41.921,57.38,37.005,62.833,45.141,38.414,32.68,26.737,52.239,0.621,4.434,59.448,783.651,0.006
0.09999981195266477,0.05317800000000003,0.289289,55.011,0.613,3.941,61.146,-0.0206173066162266,0.0169125750846612,0.0164365144728974,1.202466,1.047605,0.870386,,,,,,,,,,,,,,,,,,,,,,,,,0.287162,5.839,13.543,12.876,14.629,14.886,17.873,17.036,27.429,29.491,29.418,27.972,38.708,37.562,38.017,36.222,62.58,48.55,44.027,48.247,42.057,38.389,15.08,10.043,15.663,13.834,19.646,16.038,26.582,26.778,29.545,26.15,37.007,35.006,36.833,34.154,57.342,47.292,40.746,47.14,45.269,41.081,10.148,20.944,21.886,15.553,18.333,32.574,34.862,28.621,29.095,42.814,42.442,37.849,36.836,65.257,39.178,53.303,50.156,38.934,44.007,20.816,19.149,19.459,16.822,30.569,30.132,29.677,26.56,39.856,38.012,36.739,34.094,56.714,40.224,46.684,48.689,45.514,46.729,5.423,11.4,8.891,13.684,18.84,16.997,16.674,25.491,25.869,25.307,24.486,57.697,43.481,36.751,34.321,32.722,26.305,14.53,7.977,12.805,15.17,18.429,14.874,23.842,22.941,24.845,22.704,52.76,43.311,32.832,33.869,37.261,30.061,9.429,20.203,25.49,14.097,17.94,30.303,31.752,24.707,25.328,61.715,34.946,46.349,36.195,26.462,30.494,14.784,17.276,13.775,11.437,24.49,24.378,21.271,19.673,52.768,35.534,38.118,32.622,33.728,32.549,9.397,13.749,10.443,11.931,13.418,15.798,14.662,49.9,42.728,28.783,21.675,34.518,24.389,19.703,11.158,11.714,8.234,18.077,13.658,40.849,43.207,22.65,23.502,42.999,33.27,10.191,19.366,22.721,11.254,13.995,55.54,31.383,41.685,22.551,24.733,27.164,14.815,15.381,11.021,8.286,45.962,33.02,33.768,22.177,34.857,32.474,6.49,13.101,11.481,43.849,43.632,26.439,12.322,40.208,30.174,17.041,13.028,38.522,45.103,21.388,17.83,45.248,34.567,6.241,48.215,31.42,38.296,13.357,32.447,32.347,42.568,32.415,33.92,15.898,37.527,35.372,59.304,37.589,49.246,79.961,72.986,64.446,42.292,41.9,57.379,36.917,62.803,45.144,38.442,32.713,26.737,53.731,0.617,3.941,59.023,752.91,0.006
0.10399957877396901,0.05530500000000002,0.291416,56.077,0.599,3.449,62.42,-0.0207982705082814,0.0163095247918638,0.016021762580488,1.204317,1.047155,0.869207,,,,,,,,,,,,,,,,,,,,,,,,,0.289289,5.804,13.553,12.879,14.634,14.885,17.888,17.014,27.416,29.467,29.424,27.962,38.685,37.518,38.008,36.208,62.51,48.553,43.985,48.249,42.06,38.416,15.076,10.048,15.662,13.843,19.647,16.025,26.572,26.767,29.542,26.143,36.992,34.971,36.826,34.147,57.302,47.296,40.722,47.142,45.245,41.088,10.173,20.954,21.89,15.554,18.313,32.563,34.844,28.619,29.08,42.802,42.402,37.844,36.825,65.201,39.177,53.274,50.161,38.927,44.025,20.823,19.15,19.469,16.804,30.546,30.094,29.665,26.527,39.826,37.947,36.721,34.064,56.629,40.218,46.63,48.673,45.509,46.745,5.413,11.418,8.887,13.672,18.829,17.008,16.684,25.473,25.843,25.3,24.485,57.654,43.495,36.725,34.328,32.701,26.31,14.533,7.974,12.788,15.158,18.421,14.874,23.819,22.908,24.829,22.694,52.722,43.314,32.812,33.864,37.223,30.057,9.417,20.198,25.484,14.102,17.941,30.297,31.73,24.704,25.325,61.673,34.945,46.335,36.208,26.438,30.509,14.785,17.281,13.779,11.451,24.497,24.364,21.283,19.687,52.744,35.546,38.11,32.642,33.693,32.552,9.399,13.744,10.46,11.922,13.413,15.784,14.661,49.864,42.725,28.777,21.686,34.478,24.392,19.689,11.159,11.71,8.21,18.064,13.651,40.812,43.198,22.643,23.502,42.959,33.273,10.187,19.359,22.697,11.238,13.98,55.485,31.373,41.667,22.56,24.713,27.184,14.83,15.363,11.025,8.284,45.912,33.004,33.761,22.194,34.832,32.499,6.507,13.098,11.494,43.824,43.642,26.422,12.331,40.167,30.156,17.022,13.008,38.472,45.075,21.384,17.841,45.208,34.577,6.246,48.18,31.435,38.274,13.356,32.407,32.331,42.527,32.413,33.905,15.901,37.492,35.374,59.261,37.554,49.193,79.885,72.95,64.427,42.295,41.886,57.385,36.902,62.759,45.141,38.43,32.725,26.719,55.011,0.613,3.941,61.146,715.458,0.006
0.10799934559527324,0.05743200000000001,0.293543,57.356,0.581,3.449,63.057,-0.0201209938167525,0.0168013636041149,0.0165204847965995,1.204275,1.0456,0.868765,,,,,,,,,,,,,,,,,,,,,,,,,0.291416,5.79,13.554,12.884,14.643,14.889,17.908,17.007,27.4,29.447,29.429,27.955,38.659,37.469,38.0,36.192,62.462,48.572,43.943,48.236,42.055,38.444,15.075,10.055,15.66,13.841,19.651,16.014,26.545,26.742,29.532,26.128,36.961,34.911,36.808,34.122,57.261,47.305,40.681,47.117,45.217,41.099,10.188,20.954,21.889,15.552,18.299,32.542,34.824,28.614,29.066,42.782,42.359,37.841,36.812,65.169,39.205,53.242,50.149,38.908,44.036,20.826,19.147,19.468,16.787,30.515,30.059,29.647,26.497,39.794,37.878,36.699,34.03,56.575,40.218,46.585,48.642,45.485,46.759,5.413,11.432,8.887,13.655,18.818,17.01,16.686,25.445,25.813,25.289,24.473,57.618,43.506,36.701,34.313,32.669,26.319,14.539,7.975,12.763,15.141,18.415,14.867,23.788,22.864,24.81,22.673,52.683,43.316,32.786,33.842,37.186,30.066,9.405,20.19,25.473,14.098,17.933,30.281,31.709,24.697,25.314,61.636,34.949,46.32,36.2,26.407,30.529,14.776,17.279,13.775,11.454,24.491,24.342,21.283,19.685,52.722,35.553,38.1,32.638,33.651,32.561,9.391,13.744,10.464,11.906,13.408,15.77,14.651,49.819,42.713,28.766,21.684,34.443,24.41,19.678,11.157,11.706,8.173,18.045,13.632,40.774,43.177,22.64,23.488,42.914,33.283,10.181,19.35,22.695,11.232,13.972,55.438,31.363,41.655,22.557,24.682,27.204,14.84,15.354,11.022,8.276,45.873,32.986,33.757,22.193,34.794,32.518,6.558,13.089,11.505,43.802,43.639,26.413,12.329,40.113,30.129,17.023,13.002,38.403,45.051,21.358,17.873,45.183,34.602,6.25,48.136,31.439,38.251,13.344,32.37,32.321,42.482,32.403,33.887,15.9,37.456,35.376,59.212,37.516,49.135,79.806,72.912,64.401,42.277,41.876,57.393,36.886,62.712,45.141,38.399,32.719,26.701,56.077,0.599,3.449,62.42,672.866,0.006
0.11199911241657749,0.059559,0.29567,58.635,0.592,3.449,64.331,-0.0208140487596346,0.0167954154060952,0.0170687847591061,1.204043,1.046126,0.869252,,,,,,,,,,,,,,,,,,,,,,,,,0.293543,5.784,13.559,12.894,14.649,14.887,17.924,17.02,27.385,29.422,29.433,27.946,38.635,37.43,37.989,36.169,62.403,48.577,43.905,48.226,42.043,38.465,15.087,10.079,15.651,13.826,19.662,16.03,26.513,26.703,29.525,26.106,36.923,34.855,36.786,34.088,57.201,47.311,40.628,47.092,45.193,41.1,10.19,20.955,21.88,15.556,18.286,32.521,34.791,28.611,29.047,42.758,42.315,37.821,36.782,65.107,39.207,53.203,50.132,38.898,44.053,20.827,19.139,19.475,16.789,30.486,30.017,29.636,26.464,39.761,37.82,36.669,33.987,56.506,40.207,46.537,48.614,45.466,46.772,5.409,11.44,8.892,13.64,18.801,17.009,16.687,25.419,25.783,25.277,24.453,57.563,43.501,36.677,34.302,32.639,26.327,14.542,7.995,12.747,15.125,18.408,14.863,23.765,22.832,24.797,22.651,52.633,43.304,32.765,33.83,37.152,30.072,9.381,20.18,25.459,14.097,17.934,30.266,31.686,24.685,25.298,61.587,34.945,46.304,36.189,26.376,30.538,14.764,17.276,13.749,11.446,24.479,24.323,21.259,19.662,52.691,35.526,38.102,32.621,33.591,32.557,9.385,13.736,10.469,11.892,13.396,15.766,14.637,49.758,42.688,28.755,21.685,34.411,24.421,19.662,11.142,11.705,8.156,18.036,13.613,40.72,43.141,22.638,23.489,42.875,33.289,10.19,19.338,22.677,11.219,13.96,55.377,31.351,41.635,22.546,24.657,27.207,14.846,15.335,11.025,8.262,45.805,32.961,33.738,22.198,34.778,32.539,6.574,13.1,11.517,43.752,43.623,26.396,12.341,40.074,30.107,17.021,12.989,38.336,45.011,21.345,17.891,45.148,34.603,6.257,48.078,31.409,38.239,13.345,32.34,32.318,42.423,32.376,33.867,15.907,37.426,35.373,59.143,37.46,49.068,79.721,72.851,64.358,42.241,41.867,57.385,36.88,62.669,45.137,38.371,32.71,26.679,57.356,0.581,3.449,63.057,618.933,0.006
0.11600075971123454,0.06168700000000002,0.297798,60.341,0.592,2.956,65.605,-0.0212547721954802,0.0165059562209353,0.0180519189968899,1.204579,1.04534,0.8697,,,,,,,,,,,,,,,,,,,,,,,,,0.29567,5.769,13.573,12.891,14.65,14.878,17.932,17.011,27.366,29.39,29.434,27.937,38.598,37.375,37.977,36.141,62.288,48.574,43.869,48.216,42.03,38.493,15.098,10.08,15.64,13.819,19.658,16.013,26.486,26.665,29.511,26.086,36.877,34.796,36.764,34.052,57.095,47.304,40.591,47.072,45.16,41.109,10.21,20.957,21.877,15.551,18.268,32.504,34.763,28.605,29.029,42.731,42.273,37.807,36.754,65.004,39.202,53.18,50.121,38.875,44.074,20.828,19.141,19.486,16.774,30.465,29.978,29.631,26.44,39.724,37.767,36.653,33.952,56.39,40.211,46.496,48.602,45.451,46.794,5.387,11.444,8.902,13.626,18.784,17.011,16.696,25.393,25.744,25.269,24.439,57.46,43.49,36.657,34.294,32.608,26.345,14.533,8.002,12.729,15.116,18.395,14.869,23.737,22.797,24.784,22.637,52.55,43.291,32.757,33.82,37.1,30.071,9.384,20.172,25.446,14.106,17.94,30.255,31.662,24.685,25.29,61.491,34.939,46.29,36.187,26.343,30.555,14.765,17.264,13.751,11.449,24.468,24.299,21.258,19.65,52.591,35.507,38.091,32.626,33.563,32.587,9.387,13.723,10.487,11.88,13.376,15.759,14.635,49.66,42.658,28.747,21.688,34.37,24.435,19.641,11.136,11.69,8.134,18.023,13.597,40.62,43.102,22.635,23.499,42.834,33.306,10.186,19.325,22.652,11.206,13.943,55.257,31.322,41.609,22.534,24.639,27.231,14.849,15.326,11.023,8.245,45.69,32.921,33.729,22.211,34.756,32.576,6.567,13.105,11.531,43.644,43.598,26.361,12.371,40.046,30.108,17.02,12.994,38.245,44.983,21.317,17.922,45.105,34.597,6.264,47.967,31.38,38.214,13.347,32.315,32.326,42.31,32.34,33.846,15.934,37.401,35.391,59.04,37.375,48.981,79.585,72.758,64.314,42.208,41.838,57.373,36.871,62.621,45.137,38.334,32.698,26.661,58.635,0.592,3.449,64.331,562.408,0.006
0.12000052653253877,0.06381400000000001,0.299925,61.834,0.599,2.956,66.666,-0.0218076128023453,0.0157684621512743,0.0190841305019995,1.202633,1.045781,0.871262,,,,,,,,,,,,,,,,,,,,,,,,,0.297798,5.768,13.573,12.908,14.64,14.869,17.93,17.004,27.344,29.365,29.425,27.922,38.564,37.318,37.954,36.108,62.211,48.559,43.866,48.207,42.011,38.493,15.11,10.096,15.631,13.812,19.657,16.016,26.46,26.637,29.501,26.067,36.839,34.731,36.74,34.014,57.02,47.29,40.587,47.062,45.14,41.107,10.24,20.958,21.872,15.546,18.264,32.494,34.75,28.612,29.025,42.721,42.236,37.806,36.739,64.956,39.209,53.192,50.129,38.856,44.073,20.83,19.134,19.482,16.771,30.441,29.942,29.621,26.408,39.688,37.697,36.627,33.905,56.307,40.186,46.492,48.59,45.438,46.803,5.378,11.456,8.902,13.617,18.774,17.009,16.704,25.375,25.712,25.258,24.427,57.385,43.476,36.657,34.296,32.59,26.35,14.521,8.001,12.712,15.104,18.374,14.861,23.711,22.756,24.757,22.608,52.478,43.257,32.771,33.815,37.065,30.073,9.354,20.167,25.43,14.108,17.936,30.249,31.634,24.676,25.274,61.415,34.916,46.293,36.19,26.33,30.57,14.758,17.264,13.734,11.45,24.462,24.276,21.244,19.635,52.543,35.48,38.116,32.63,33.517,32.58,9.38,13.71,10.498,11.869,13.363,15.742,14.627,49.573,42.626,28.742,21.698,34.352,24.45,19.618,11.124,11.67,8.097,17.997,13.569,40.539,43.054,22.651,23.509,42.804,33.318,10.189,19.319,22.633,11.196,13.937,55.175,31.307,41.592,22.53,24.626,27.229,14.859,15.309,11.02,8.228,45.605,32.879,33.733,22.232,34.747,32.603,6.581,13.108,11.549,43.548,43.578,26.319,12.408,40.039,30.114,17.013,12.984,38.139,44.936,21.293,17.975,45.092,34.619,6.278,47.885,31.362,38.188,13.353,32.301,32.32,42.219,32.304,33.829,15.972,37.393,35.406,58.968,37.302,48.911,79.49,72.679,64.283,42.184,41.822,57.355,36.856,62.592,45.133,38.314,32.693,26.643,60.341,0.592,2.956,65.605,509.678,0.006
0.12400029335384301,0.065941,0.302052,62.9,0.621,3.449,67.94,-0.0222073061853453,0.015348179736805,0.0197421155324401,1.202361,1.046661,0.871242,,,,,,,,,,,,,,,,,,,,,,,,,0.299925,5.775,13.581,12.899,14.625,14.855,17.914,16.991,27.315,29.347,29.405,27.901,38.526,37.256,37.927,36.061,62.176,48.54,43.851,48.183,41.979,38.493,15.111,10.086,15.632,13.802,19.652,16.019,26.44,26.624,29.492,26.053,36.808,34.67,36.721,33.972,56.985,47.274,40.575,47.049,45.121,41.123,10.218,20.969,21.869,15.546,18.24,32.482,34.734,28.607,29.01,42.699,42.181,37.792,36.699,64.916,39.191,53.179,50.118,38.849,44.1,20.832,19.122,19.474,16.767,30.426,29.932,29.617,26.4,39.669,37.643,36.62,33.873,56.293,40.187,46.486,48.587,45.418,46.814,5.396,11.463,8.92,13.608,18.776,17.011,16.71,25.356,25.677,25.25,24.405,57.353,43.464,36.645,34.288,32.573,26.361,14.525,8.02,12.701,15.095,18.372,14.851,23.685,22.706,24.741,22.571,52.429,43.229,32.758,33.806,37.058,30.105,9.323,20.162,25.422,14.108,17.933,30.237,31.6,24.67,25.25,61.38,34.898,46.283,36.184,26.317,30.59,14.766,17.283,13.72,11.456,24.462,24.256,21.236,19.613,52.534,35.441,38.138,32.632,33.478,32.599,9.376,13.71,10.501,11.855,13.344,15.733,14.612,49.525,42.595,28.726,21.7,34.346,24.479,19.608,11.113,11.649,8.048,17.974,13.534,40.492,43.009,22.653,23.504,42.789,33.346,10.193,19.316,22.616,11.192,13.926,55.135,31.279,41.578,22.525,24.618,27.248,14.857,15.279,11.016,8.202,45.562,32.846,33.723,22.238,34.742,32.632,6.6,13.106,11.56,43.498,43.551,26.286,12.43,40.033,30.124,17.002,12.967,38.076,44.881,21.274,18.016,45.082,34.649,6.289,47.839,31.337,38.161,13.352,32.298,32.329,42.174,32.268,33.806,16.003,37.387,35.423,58.928,37.261,48.871,79.443,72.651,64.244,42.15,41.804,57.343,36.839,62.567,45.135,38.303,32.693,26.635,61.834,0.599,2.956,66.666,461.558,0.007
0.12800006017514726,0.06806799999999999,0.304179,63.753,0.61,3.449,68.152,-0.0215729082256357,0.0143394782368901,0.0200825902126817,1.202021,1.04843,0.870324,,,,,,,,,,,,,,,,,,,,,,,,,0.302052,5.772,13.582,12.895,14.618,14.85,17.918,16.992,27.296,29.319,29.4,27.882,38.49,37.21,37.903,36.018,62.116,48.528,43.806,48.176,41.954,38.497,15.102,10.069,15.62,13.79,19.644,16.015,26.418,26.592,29.477,26.024,36.772,34.62,36.689,33.921,56.928,47.245,40.541,47.039,45.086,41.129,10.227,20.967,21.864,15.537,18.214,32.468,34.709,28.603,28.991,42.677,42.142,37.781,36.665,64.881,39.192,53.145,50.119,38.815,44.094,20.817,19.097,19.462,16.738,30.397,29.888,29.6,26.363,39.633,37.583,36.593,33.82,56.246,40.172,46.443,48.575,45.382,46.81,5.403,11.479,8.947,13.594,18.759,17.013,16.706,25.323,25.644,25.228,24.372,57.281,43.448,36.598,34.286,32.559,26.376,14.534,8.05,12.689,15.07,18.368,14.835,23.653,22.665,24.713,22.526,52.349,43.197,32.716,33.804,37.044,30.136,9.301,20.161,25.413,14.109,17.928,30.222,31.577,24.659,25.223,61.327,34.878,46.253,36.188,26.29,30.6,14.786,17.295,13.71,11.451,24.466,24.248,21.222,19.585,52.493,35.388,38.142,32.647,33.439,32.628,9.381,13.709,10.512,11.834,13.332,15.711,14.593,49.447,42.564,28.688,21.71,34.333,24.507,19.602,11.106,11.652,8.031,17.954,13.508,40.41,42.962,22.635,23.527,42.775,33.386,10.199,19.305,22.6,11.18,13.91,55.071,31.254,41.541,22.527,24.603,27.258,14.869,15.264,11.017,8.179,45.495,32.807,33.699,22.266,34.733,32.665,6.622,13.095,11.577,43.431,43.528,26.243,12.457,40.014,30.125,16.98,12.949,37.979,44.827,21.246,18.052,45.069,34.686,6.3,47.774,31.324,38.111,13.357,32.285,32.324,42.109,32.233,33.769,16.045,37.371,35.436,58.882,37.191,48.806,79.366,72.594,64.189,42.127,41.781,57.324,36.815,62.515,45.125,38.297,32.7,26.614,62.9,0.621,3.449,67.94,424.453,0.007
0.1319998269964516,0.07019500000000004,0.306306,63.753,0.61,3.449,68.789,-0.0204669951427412,0.0134743759697872,0.018380516826876,1.202081,1.048526,0.869788,,,,,,,,,,,,,,,,,,,,,,,,,0.304179,5.749,13.585,12.898,14.616,14.828,17.915,16.994,27.273,29.281,29.393,27.86,38.461,37.154,37.876,35.967,61.904,48.508,43.768,48.162,41.943,38.503,15.101,10.071,15.6,13.773,19.622,15.993,26.381,26.546,29.455,25.99,36.735,34.571,36.65,33.862,56.732,47.215,40.51,47.014,45.051,41.117,10.262,20.967,21.854,15.525,18.209,32.454,34.68,28.596,28.98,42.662,42.114,37.766,36.626,64.7,39.191,53.123,50.111,38.785,44.083,20.807,19.087,19.452,16.695,30.357,29.819,29.577,26.315,39.589,37.535,36.548,33.745,56.024,40.142,46.393,48.542,45.363,46.805,5.361,11.486,8.986,13.578,18.742,17.012,16.7,25.3,25.58,25.206,24.335,57.076,43.425,36.563,34.275,32.55,26.382,14.516,8.073,12.674,15.076,18.361,14.841,23.645,22.636,24.698,22.506,52.186,43.178,32.712,33.803,37.006,30.117,9.328,20.161,25.399,14.111,17.931,30.215,31.539,24.651,25.195,61.133,34.863,46.228,36.186,26.277,30.602,14.793,17.265,13.723,11.431,24.457,24.212,21.203,19.535,52.264,35.338,38.114,32.647,33.457,32.675,9.385,13.719,10.517,11.823,13.26,15.699,14.576,49.241,42.528,28.65,21.718,34.341,24.536,19.602,11.086,11.671,8.03,17.939,13.484,40.2,42.9,22.627,23.553,42.777,33.429,10.217,19.305,22.567,11.173,13.895,54.881,31.221,41.517,22.523,24.597,27.262,14.875,15.251,11.016,8.15,45.289,32.767,33.67,22.281,34.744,32.692,6.569,13.09,11.597,43.253,43.492,26.207,12.475,40.013,30.131,16.956,12.963,37.873,44.806,21.219,18.044,45.014,34.621,6.304,47.585,31.292,38.069,13.359,32.289,32.323,41.923,32.181,33.741,16.082,37.366,35.445,58.695,37.046,48.653,79.176,72.424,64.126,42.082,41.769,57.296,36.796,62.483,45.121,38.293,32.701,26.597,63.753,0.61,3.449,68.152,388.388,0.007
0.13599959381775584,0.07232200000000003,0.308433,64.179,0.596,3.941,69.214,-0.0187556747179142,0.0115241568974704,0.0170420820725669,1.19984,1.04894,0.868219,,,,,,,,,,,,,,,,,,,,,,,,,0.306306,5.719,13.581,12.894,14.614,14.818,17.921,16.993,27.247,29.247,29.386,27.841,38.42,37.096,37.849,35.926,61.733,48.469,43.739,48.164,41.935,38.518,15.1,10.074,15.591,13.772,19.615,15.991,26.356,26.517,29.445,25.977,36.7,34.521,36.627,33.829,56.587,47.186,40.494,47.019,45.025,41.115,10.3,20.957,21.847,15.504,18.207,32.433,34.647,28.583,28.965,42.634,42.066,37.746,36.592,64.553,39.164,53.105,50.116,38.756,44.078,20.807,19.086,19.452,16.687,30.329,29.765,29.569,26.29,39.549,37.469,36.523,33.699,55.844,40.114,46.354,48.54,45.361,46.819,5.347,11.498,8.999,13.564,18.733,17.01,16.697,25.27,25.54,25.185,24.307,56.923,43.389,36.548,34.284,32.533,26.392,14.514,8.08,12.652,15.068,18.352,14.839,23.615,22.597,24.677,22.481,52.046,43.147,32.703,33.811,36.977,30.114,9.334,20.161,25.383,14.108,17.921,30.199,31.504,24.633,25.163,60.968,34.807,46.217,36.2,26.27,30.631,14.782,17.234,13.719,11.414,24.431,24.164,21.18,19.496,52.095,35.295,38.094,32.655,33.451,32.697,9.392,13.726,10.523,11.807,13.234,15.692,14.567,49.089,42.498,28.628,21.745,34.338,24.556,19.593,11.068,11.671,8.011,17.923,13.461,40.039,42.844,22.63,23.581,42.768,33.465,10.217,19.298,22.542,11.159,13.874,54.726,31.181,41.499,22.538,24.591,27.279,14.873,15.225,11.009,8.128,45.133,32.732,33.656,22.305,34.738,32.713,6.569,13.092,11.612,43.119,43.473,26.172,12.512,40.002,30.127,16.94,12.953,37.737,44.762,21.204,18.075,44.991,34.625,6.305,47.443,31.27,38.041,13.379,32.279,32.321,41.783,32.147,33.722,16.118,37.349,35.45,58.564,36.941,48.53,79.019,72.294,64.085,42.069,41.731,57.269,36.781,62.456,45.117,38.301,32.715,26.592,63.753,0.61,3.449,68.789,348.611,0.007
0.13999936063906007,0.07444900000000002,0.31056,64.392,0.588,3.941,69.639,-0.0179661702404123,0.0105818786302477,0.0155306917850694,1.199632,1.048894,0.867756,,,,,,,,,,,,,,,,,,,,,,,,,0.308433,5.745,13.579,12.89,14.598,14.8,17.912,16.983,27.215,29.203,29.376,27.814,38.38,37.028,37.818,35.879,61.58,48.437,43.674,48.155,41.922,38.508,15.116,10.073,15.578,13.753,19.62,15.98,26.31,26.449,29.436,25.939,36.647,34.438,36.589,33.77,56.409,47.157,40.4,46.997,45.027,41.111,10.29,20.948,21.828,15.498,18.181,32.411,34.597,28.583,28.937,42.604,42.013,37.728,36.55,64.382,39.137,53.034,50.119,38.757,44.087,20.782,19.062,19.432,16.651,30.285,29.694,29.552,26.244,39.503,37.406,36.486,33.642,55.677,40.083,46.271,48.52,45.341,46.805,5.323,11.501,9.013,13.551,18.717,17.008,16.689,25.244,25.483,25.164,24.273,56.771,43.352,36.5,34.29,32.529,26.401,14.498,8.091,12.631,15.056,18.338,14.829,23.592,22.55,24.65,22.447,51.914,43.105,32.668,33.81,36.951,30.105,9.324,20.161,25.362,14.113,17.912,30.185,31.465,24.625,25.136,60.81,34.771,46.169,36.217,26.266,30.649,14.788,17.219,13.723,11.405,24.427,24.139,21.168,19.468,51.944,35.243,38.06,32.672,33.442,32.722,9.395,13.73,10.532,11.791,13.177,15.679,14.546,48.934,42.462,28.576,21.764,34.348,24.577,19.585,11.053,11.69,8.0,17.901,13.432,39.883,42.78,22.604,23.603,42.766,33.498,10.225,19.285,22.515,11.152,13.857,54.572,31.151,41.452,22.55,24.582,27.285,14.883,15.218,11.006,8.108,44.976,32.686,33.614,22.33,34.736,32.736,6.557,13.077,11.62,42.995,43.443,26.13,12.524,39.989,30.114,16.923,12.96,37.648,44.742,21.15,18.084,44.956,34.58,6.3,47.283,31.251,37.978,13.392,32.278,32.321,41.636,32.113,33.669,16.144,37.334,35.448,58.396,36.838,48.382,78.858,72.163,64.0,42.051,41.694,57.249,36.74,62.418,45.096,38.323,32.735,26.61,64.179,0.596,3.941,69.214,304.408,0.007
0.1439991274603643,0.076576,0.312687,65.032,0.585,4.434,70.488,-0.0181385815284636,0.00951196476962291,0.0150482411197056,1.198159,1.048691,0.867296,,,,,,,,,,,,,,,,,,,,,,,,,0.31056,5.736,13.584,12.888,14.585,14.789,17.916,16.968,27.183,29.16,29.358,27.789,38.345,36.966,37.786,35.832,61.471,48.408,43.629,48.155,41.918,38.52,15.119,10.072,15.564,13.737,19.615,15.954,26.274,26.403,29.41,25.906,36.609,34.375,36.551,33.72,56.306,47.12,40.362,46.992,45.011,41.118,10.299,20.937,21.818,15.488,18.178,32.387,34.56,28.565,28.912,42.581,41.961,37.705,36.513,64.293,39.119,53.002,50.124,38.731,44.085,20.769,19.041,19.421,16.624,30.248,29.643,29.523,26.2,39.467,37.34,36.447,33.591,55.576,40.046,46.233,48.513,45.318,46.808,5.337,11.505,9.019,13.542,18.703,17.002,16.695,25.229,25.445,25.149,24.247,56.678,43.323,36.469,34.308,32.526,26.416,14.5,8.071,12.61,15.024,18.322,14.813,23.566,22.498,24.619,22.404,51.805,43.059,32.634,33.818,36.951,30.133,9.346,20.153,25.339,14.103,17.905,30.17,31.423,24.608,25.103,60.712,34.739,46.137,36.229,26.253,30.66,14.771,17.178,13.725,11.389,24.408,24.084,21.152,19.432,51.829,35.218,38.011,32.688,33.455,32.746,9.386,13.727,10.547,11.783,13.144,15.667,14.525,48.828,42.421,28.533,21.793,34.358,24.607,19.565,11.039,11.697,7.984,17.879,13.409,39.787,42.719,22.59,23.633,42.758,33.526,10.23,19.277,22.478,11.143,13.832,54.467,31.116,41.408,22.569,24.585,27.296,14.897,15.193,11.004,8.087,44.867,32.633,33.585,22.368,34.745,32.773,6.554,13.07,11.625,42.903,43.407,26.081,12.553,39.989,30.117,16.891,12.937,37.562,44.676,21.125,18.11,44.934,34.583,6.291,47.179,31.219,37.923,13.412,32.278,32.32,41.548,32.071,33.628,16.177,37.318,35.444,58.286,36.77,48.293,78.755,72.083,63.928,42.019,41.658,57.218,36.709,62.383,45.083,38.338,32.75,26.615,64.392,0.588,3.941,69.639,253.942,0.007
0.14799889428166857,0.078703,0.314814,66.098,0.596,4.926,71.125,-0.0178521741733137,0.00835179478448579,0.0148239510565226,1.196667,1.048593,0.866924,,,,,,,,,,,,,,,,,,,,,,,,,0.312687,5.717,13.594,12.886,14.583,14.782,17.914,16.964,27.159,29.111,29.347,27.77,38.304,36.918,37.761,35.783,61.368,48.38,43.593,48.159,41.92,38.533,15.128,10.082,15.555,13.727,19.605,15.949,26.243,26.354,29.393,25.881,36.57,34.333,36.522,33.673,56.218,47.093,40.335,46.995,45.001,41.119,10.312,20.934,21.809,15.477,18.169,32.367,34.516,28.546,28.885,42.552,41.924,37.684,36.469,64.209,39.09,52.98,50.129,38.711,44.085,20.761,19.022,19.408,16.605,30.212,29.581,29.496,26.151,39.426,37.294,36.411,33.534,55.477,40.01,46.202,48.507,45.305,46.81,5.338,11.502,9.026,13.53,18.675,16.995,16.704,25.195,25.402,25.127,24.206,56.585,43.291,36.441,34.316,32.527,26.428,14.487,8.064,12.589,14.989,18.305,14.803,23.531,22.457,24.587,22.354,51.71,43.013,32.614,33.823,36.947,30.151,9.341,20.146,25.307,14.098,17.906,30.149,31.386,24.599,25.069,60.622,34.714,46.108,36.243,26.254,30.666,14.761,17.146,13.715,11.378,24.388,24.054,21.134,19.393,51.739,35.18,37.992,32.702,33.455,32.764,9.369,13.733,10.572,11.757,13.097,15.651,14.492,48.721,42.383,28.494,21.818,34.383,24.644,19.55,11.025,11.707,7.992,17.859,13.383,39.699,42.663,22.59,23.671,42.76,33.555,10.251,19.271,22.449,11.14,13.806,54.374,31.078,41.38,22.589,24.598,27.311,14.918,15.184,11.007,8.056,44.753,32.576,33.568,22.414,34.78,32.829,6.531,13.065,11.635,42.827,43.385,26.038,12.592,39.994,30.11,16.857,12.923,37.507,44.636,21.108,18.121,44.914,34.565,6.28,47.081,31.195,37.876,13.432,32.299,32.324,41.472,32.04,33.596,16.215,37.314,35.438,58.201,36.709,48.218,78.677,72.011,63.878,41.999,41.635,57.191,36.687,62.364,45.072,38.363,32.762,26.616,65.032,0.585,4.434,70.488,212.553,0.007
0.15200054157632562,0.08083100000000001,0.316942,66.738,0.606,5.419,71.762,-0.017630041678471,0.00728689305101137,0.0151458632312358,1.193949,1.045933,0.866415,,,,,,,,,,,,,,,,,,,,,,,,,0.314814,5.724,13.601,12.883,14.577,14.764,17.904,16.951,27.136,29.064,29.337,27.749,38.274,36.856,37.728,35.738,61.237,48.337,43.544,48.151,41.918,38.545,15.141,10.085,15.536,13.703,19.593,15.926,26.199,26.285,29.37,25.839,36.522,34.258,36.472,33.61,56.074,47.043,40.27,46.965,44.995,41.123,10.304,20.928,21.789,15.463,18.143,32.341,34.459,28.523,28.846,42.52,41.872,37.645,36.415,64.071,39.036,52.931,50.119,38.688,44.087,20.744,19.006,19.391,16.577,30.171,29.514,29.467,26.099,39.388,37.243,36.363,33.471,55.344,39.952,46.15,48.483,45.281,46.808,5.31,11.498,9.026,13.519,18.646,16.994,16.707,25.171,25.339,25.103,24.174,56.458,43.255,36.398,34.316,32.543,26.446,14.468,8.067,12.575,14.975,18.298,14.811,23.519,22.417,24.565,22.331,51.61,42.976,32.593,33.824,36.942,30.156,9.336,20.142,25.28,14.099,17.907,30.137,31.347,24.589,25.047,60.504,34.694,46.07,36.259,26.25,30.666,14.755,17.119,13.712,11.372,24.382,24.027,21.116,19.366,51.623,35.139,37.965,32.713,33.458,32.78,9.353,13.743,10.59,11.74,13.026,15.633,14.47,48.584,42.344,28.449,21.826,34.427,24.69,19.539,11.014,11.729,7.992,17.839,13.362,39.581,42.602,22.582,23.685,42.779,33.595,10.266,19.267,22.425,11.13,13.792,54.252,31.043,41.35,22.609,24.617,27.325,14.94,15.188,11.003,8.034,44.618,32.519,33.547,22.444,34.813,32.879,6.508,13.057,11.651,42.726,43.359,26.006,12.589,40.02,30.117,16.845,12.942,37.455,44.626,21.067,18.113,44.907,34.525,6.278,46.956,31.174,37.831,13.456,32.328,32.329,41.354,32.002,33.563,16.246,37.333,35.453,58.068,36.635,48.09,78.578,71.923,63.813,41.997,41.612,57.169,36.639,62.363,45.075,38.43,32.786,26.638,66.098,0.596,4.926,71.125,185.484,0.008
0.15600030839762985,0.082958,0.319069,67.164,0.621,5.912,72.186,-0.0172196435802453,0.00575763116393388,0.0155177427375827,1.194267,1.046143,0.865807,,,,,,,,,,,,,,,,,,,,,,,,,0.316942,5.73,13.593,12.885,14.56,14.751,17.892,16.937,27.11,29.019,29.318,27.726,38.237,36.805,37.688,35.685,61.138,48.302,43.495,48.154,41.9,38.547,15.148,10.089,15.516,13.679,19.59,15.913,26.165,26.231,29.351,25.809,36.481,34.2,36.431,33.55,55.97,47.013,40.21,46.965,44.986,41.129,10.319,20.91,21.779,15.458,18.135,32.323,34.417,28.505,28.829,42.493,41.828,37.62,36.37,63.987,39.016,52.886,50.139,38.657,44.082,20.718,18.978,19.387,16.554,30.135,29.451,29.436,26.057,39.345,37.179,36.319,33.401,55.24,39.914,46.091,48.483,45.261,46.811,5.317,11.488,9.015,13.51,18.618,16.991,16.699,25.145,25.301,25.069,24.136,56.347,43.218,36.358,34.33,32.554,26.477,14.472,8.062,12.564,14.939,18.299,14.798,23.495,22.374,24.535,22.289,51.494,42.942,32.548,33.84,36.963,30.197,9.342,20.137,25.254,14.093,17.911,30.117,31.315,24.57,25.022,60.411,34.677,46.031,36.285,26.239,30.666,14.746,17.087,13.706,11.363,24.363,23.99,21.093,19.327,51.523,35.112,37.926,32.737,33.465,32.804,9.342,13.756,10.598,11.722,12.995,15.611,14.455,48.465,42.317,28.406,21.849,34.466,24.738,19.528,10.99,11.744,7.989,17.818,13.336,39.477,42.555,22.572,23.718,42.797,33.641,10.278,19.26,22.405,11.113,13.78,54.143,31.004,41.321,22.647,24.644,27.361,14.942,15.162,10.999,8.003,44.5,32.487,33.512,22.488,34.851,32.928,6.515,13.042,11.669,42.628,43.336,25.979,12.606,40.044,30.137,16.819,12.927,37.352,44.584,21.048,18.132,44.923,34.555,6.299,46.853,31.165,37.786,13.497,32.352,32.336,41.24,31.969,33.528,16.318,37.366,35.491,57.983,36.551,47.988,78.499,71.853,63.761,42.017,41.591,57.159,36.608,62.361,45.086,38.498,32.817,26.656,66.738,0.606,5.419,71.762,172.878,0.008
0.16000007521893408,0.085085,0.321196,67.164,0.617,6.404,72.186,-0.0176769873484536,0.00437147014195294,0.0162268496503976,1.192544,1.047624,0.866304,,,,,,,,,,,,,,,,,,,,,,,,,0.319069,5.734,13.589,12.883,14.549,14.75,17.883,16.927,27.091,28.977,29.302,27.694,38.204,36.753,37.659,35.638,61.073,48.27,43.437,48.18,41.885,38.548,15.145,10.081,15.507,13.674,19.583,15.899,26.143,26.181,29.332,25.77,36.446,34.145,36.399,33.496,55.903,46.978,40.151,46.991,44.977,41.136,10.328,20.899,21.778,15.444,18.124,32.297,34.367,28.489,28.789,42.462,41.773,37.595,36.32,63.925,38.99,52.828,50.169,38.637,44.078,20.702,18.963,19.375,16.529,30.096,29.381,29.408,25.995,39.301,37.109,36.28,33.329,55.168,39.882,46.022,48.503,45.248,46.81,5.33,11.491,9.02,13.506,18.6,16.986,16.7,25.124,25.264,25.052,24.116,56.279,43.187,36.31,34.364,32.558,26.492,14.484,8.064,12.547,14.9,18.29,14.782,23.462,22.322,24.508,22.251,51.413,42.908,32.487,33.868,36.978,30.22,9.351,20.13,25.232,14.095,17.906,30.103,31.279,24.561,25.003,60.348,34.648,45.987,36.327,26.237,30.677,14.731,17.05,13.7,11.34,24.344,23.946,21.076,19.291,51.451,35.079,37.877,32.78,33.478,32.827,9.342,13.736,10.607,11.701,12.961,15.579,14.437,48.377,42.261,28.368,21.881,34.487,24.783,19.507,10.975,11.763,7.986,17.802,13.311,39.398,42.492,22.556,23.783,42.816,33.691,10.287,19.242,22.364,11.099,13.771,54.059,30.967,41.271,22.686,24.677,27.385,14.965,15.145,11.012,7.989,44.414,32.433,33.482,22.573,34.891,32.988,6.515,13.029,11.695,42.555,43.298,25.946,12.651,40.064,30.156,16.785,12.905,37.28,44.519,21.034,18.176,44.927,34.579,6.326,46.772,31.136,37.738,13.552,32.384,32.353,41.144,31.915,33.488,16.421,37.409,35.541,57.914,36.496,47.935,78.45,71.806,63.693,42.024,41.577,57.137,36.601,62.343,45.082,38.551,32.843,26.662,67.164,0.621,5.912,72.186,172.796,0.008
0.16399984204023843,0.08721200000000004,0.323323,66.951,0.603,6.897,72.611,-0.0176183892580342,0.00271685155929601,0.0168192127597899,1.191172,1.048084,0.864342,,,,,,,,,,,,,,,,,,,,,,,,,0.321196,5.738,13.585,12.881,14.53,14.741,17.859,16.914,27.057,28.941,29.276,27.666,38.152,36.693,37.619,35.581,60.99,48.233,43.367,48.177,41.869,38.539,15.146,10.082,15.486,13.65,19.558,15.878,26.102,26.133,29.299,25.726,36.384,34.075,36.354,33.427,55.815,46.935,40.073,46.981,44.962,41.133,10.32,20.886,21.775,15.429,18.104,32.274,34.336,28.474,28.76,42.428,41.717,37.572,36.276,63.86,38.975,52.77,50.188,38.606,44.069,20.679,18.94,19.34,16.491,30.059,29.334,29.369,25.938,39.246,37.04,36.238,33.258,55.101,39.838,45.958,48.503,45.212,46.801,5.348,11.478,9.036,13.49,18.589,16.974,16.707,25.095,25.225,25.024,24.084,56.192,43.146,36.267,34.376,32.572,26.513,14.483,8.08,12.527,14.869,18.277,14.771,23.419,22.267,24.475,22.202,51.308,42.862,32.428,33.873,37.005,30.258,9.34,20.114,25.209,14.096,17.903,30.082,31.233,24.545,24.977,60.265,34.625,45.939,36.354,26.244,30.686,14.735,17.04,13.691,11.33,24.329,23.91,21.059,19.255,51.37,35.023,37.849,32.811,33.489,32.867,9.351,13.724,10.643,11.687,12.941,15.559,14.428,48.288,42.213,28.345,21.901,34.521,24.827,19.485,10.966,11.746,7.964,17.78,13.273,39.3,42.422,22.545,23.808,42.846,33.752,10.299,19.231,22.32,11.078,13.758,53.961,30.925,41.234,22.715,24.716,27.416,14.98,15.119,11.022,7.962,44.307,32.362,33.463,22.636,34.943,33.068,6.493,13.025,11.708,42.444,43.251,25.914,12.69,40.119,30.208,16.749,12.868,37.183,44.433,21.044,18.193,44.946,34.627,6.358,46.69,31.102,37.711,13.594,32.411,32.368,41.041,31.86,33.458,16.501,37.452,35.592,57.828,36.411,47.854,78.395,71.758,63.621,42.024,41.544,57.116,36.593,62.362,45.117,38.622,32.877,26.693,67.164,0.617,6.404,72.186,168.492,0.008
0.16799960886154267,0.08933900000000003,0.32545,66.951,0.596,7.882,72.399,-0.0168602188038312,0.000915213510778761,0.0170221723154029,1.189814,1.047122,0.864118,,,,,,,,,,,,,,,,,,,,,,,,,0.323323,5.733,13.585,12.881,14.518,14.729,17.856,16.889,27.024,28.904,29.25,27.631,38.087,36.638,37.582,35.529,60.826,48.2,43.307,48.176,41.866,38.529,15.147,10.084,15.464,13.624,19.545,15.842,26.058,26.085,29.258,25.674,36.301,34.006,36.305,33.366,55.645,46.891,39.98,46.96,44.95,41.121,10.331,20.875,21.766,15.421,18.085,32.254,34.306,28.46,28.728,42.388,41.668,37.549,36.237,63.691,38.963,52.7,50.217,38.581,44.069,20.673,18.929,19.341,16.471,30.037,29.297,29.35,25.894,39.188,36.98,36.21,33.218,54.915,39.811,45.845,48.51,45.205,46.817,5.358,11.476,9.031,13.475,18.575,16.954,16.702,25.059,25.197,24.997,24.041,56.075,43.101,36.282,34.391,32.587,26.534,14.487,8.072,12.508,14.844,18.254,14.752,23.365,22.226,24.445,22.156,51.178,42.811,32.409,33.874,37.029,30.293,9.341,20.109,25.193,14.09,17.897,30.07,31.201,24.528,24.94,60.133,34.594,45.935,36.4,26.242,30.714,14.736,17.027,13.686,11.322,24.308,23.88,21.051,19.23,51.241,34.987,37.819,32.848,33.507,32.912,9.351,13.712,10.672,11.668,12.934,15.549,14.405,48.209,42.166,28.387,21.918,34.565,24.886,19.457,10.955,11.692,7.943,17.757,13.25,39.215,42.351,22.535,23.792,42.877,33.815,10.304,19.233,22.282,11.062,13.714,53.845,30.887,41.235,22.77,24.761,27.48,14.99,15.097,11.032,7.945,44.183,32.294,33.441,22.688,34.992,33.164,6.444,13.049,11.706,42.357,43.209,25.904,12.726,40.206,30.305,16.719,12.837,37.115,44.337,21.068,18.164,44.983,34.71,6.338,46.61,31.055,37.709,13.649,32.449,32.437,40.98,31.804,33.436,16.523,37.46,35.638,57.637,36.202,47.767,78.331,71.77,63.49,42.028,41.514,57.14,36.592,62.487,45.316,38.764,32.999,26.776,66.951,0.603,6.897,72.611,156.376,0.008
0.1719993756828469,0.09146600000000002,0.327577,67.377,0.581,8.375,72.823,-0.0165764861305845,-0.000362210777374752,0.0162648553637632,1.187752,1.04621,0.863467,,,,,,,,,,,,,,,,,,,,,,,,,0.32545,5.725,13.591,12.885,14.502,14.717,17.831,16.868,26.984,28.86,29.212,27.592,38.048,36.583,37.541,35.478,60.733,48.164,43.249,48.181,41.86,38.525,15.145,10.082,15.452,13.608,19.519,15.826,26.021,26.046,29.224,25.638,36.274,33.96,36.271,33.324,55.564,46.854,39.936,46.976,44.947,41.126,10.34,20.876,21.769,15.405,18.069,32.234,34.268,28.434,28.698,42.367,41.623,37.521,36.198,63.612,38.943,52.649,50.235,38.569,44.07,20.661,18.904,19.317,16.444,29.992,29.237,29.311,25.839,39.154,36.917,36.167,33.165,54.823,39.779,45.784,48.517,45.2,46.818,5.378,11.476,9.034,13.457,18.554,16.933,16.693,25.03,25.155,24.97,24.005,55.976,43.057,36.217,34.409,32.612,26.553,14.494,8.077,12.483,14.807,18.241,14.73,23.339,22.176,24.419,22.115,51.061,42.76,32.338,33.897,37.072,30.337,9.326,20.105,25.167,14.079,17.889,30.052,31.163,24.51,24.91,60.039,34.562,45.87,36.425,26.264,30.727,14.729,17.008,13.669,11.31,24.303,23.85,21.034,19.204,51.158,34.939,37.771,32.883,33.524,32.936,9.335,13.716,10.68,11.652,12.896,15.544,14.381,48.088,42.106,28.303,21.963,34.626,24.947,19.438,10.932,11.717,7.937,17.745,13.227,39.109,42.263,22.497,23.848,42.91,33.872,10.317,19.221,22.25,11.053,13.693,53.75,30.836,41.162,22.803,24.797,27.495,15.009,15.074,11.044,7.933,44.077,32.227,33.38,22.752,35.042,33.216,6.458,13.047,11.716,42.28,43.145,25.842,12.764,40.229,30.315,16.697,12.815,37.022,44.245,21.018,18.209,45.001,34.74,6.336,46.522,30.986,37.639,13.69,32.475,32.449,40.901,31.734,33.373,16.577,37.478,35.65,57.53,36.12,47.705,78.272,71.708,63.372,41.974,41.484,57.094,36.555,62.459,45.3,38.806,33.024,26.79,66.951,0.596,7.882,72.399,134.672,0.009
0.17599914250415113,0.09359300000000001,0.329704,67.804,0.592,8.867,73.46,-0.0158925003409176,-0.00223948411175057,0.0156111300784477,1.186326,1.046899,0.863452,,,,,,,,,,,,,,,,,,,,,,,,,0.327577,5.712,13.565,12.873,14.493,14.705,17.812,16.84,26.955,28.814,29.182,27.562,38.013,36.522,37.501,35.409,60.637,48.125,43.215,48.197,41.873,38.547,15.123,10.064,15.438,13.596,19.494,15.798,25.986,25.999,29.19,25.602,36.242,33.901,36.228,33.251,55.48,46.811,39.912,46.992,44.952,41.145,10.366,20.86,21.757,15.388,18.049,32.209,34.224,28.414,28.675,42.339,41.572,37.497,36.145,63.544,38.953,52.615,50.261,38.569,44.068,20.648,18.886,19.305,16.417,29.951,29.169,29.281,25.791,39.114,36.845,36.124,33.085,54.727,39.76,45.737,48.53,45.217,46.835,5.378,11.472,9.028,13.444,18.53,16.917,16.69,25.002,25.111,24.944,23.958,55.881,43.013,36.183,34.433,32.641,26.584,14.49,8.077,12.462,14.777,18.225,14.722,23.315,22.128,24.392,22.064,50.967,42.714,32.305,33.925,37.102,30.373,9.312,20.1,25.138,14.069,17.881,30.029,31.122,24.492,24.867,59.948,34.531,45.834,36.456,26.293,30.751,14.725,16.986,13.661,11.308,24.296,23.82,21.023,19.166,51.082,34.902,37.751,32.928,33.549,32.968,9.322,13.717,10.693,11.634,12.857,15.531,14.355,47.974,42.042,28.254,22.006,34.678,25.009,19.42,10.917,11.743,7.927,17.728,13.191,39.012,42.178,22.489,23.907,42.94,33.929,10.325,19.202,22.223,11.045,13.674,53.654,30.78,41.121,22.841,24.836,27.523,15.023,15.056,11.043,7.894,43.974,32.153,33.355,22.816,35.089,33.277,6.483,13.032,11.733,42.203,43.07,25.814,12.799,40.243,30.329,16.679,12.8,36.93,44.159,20.987,18.265,45.02,34.771,6.352,46.425,30.915,37.592,13.739,32.507,32.47,40.804,31.655,33.33,16.667,37.509,35.684,57.423,36.045,47.635,78.212,71.65,63.283,41.924,41.459,57.055,36.539,62.458,45.307,38.849,33.053,26.805,67.377,0.581,8.375,72.823,106.787,0.009
0.17999890932545537,0.09572,0.331831,68.657,0.596,9.36,73.673,-0.0155842722994683,-0.00340350815374161,0.0148757193370877,1.184332,1.045367,0.859395,,,,,,,,,,,,,,,,,,,,,,,,,0.329704,5.732,13.563,12.876,14.475,14.679,17.801,16.828,26.917,28.76,29.157,27.53,37.966,36.448,37.45,35.35,60.465,48.088,43.172,48.2,41.871,38.54,15.123,10.066,15.422,13.566,19.483,15.771,25.937,25.925,29.156,25.55,36.18,33.81,36.164,33.174,55.284,46.761,39.846,46.975,44.959,41.148,10.336,20.854,21.736,15.383,18.032,32.185,34.176,28.402,28.65,42.31,41.514,37.464,36.098,63.355,38.931,52.568,50.288,38.584,44.088,20.636,18.872,19.28,16.387,29.921,29.12,29.251,25.752,39.079,36.788,36.079,33.027,54.554,39.718,45.694,48.535,45.21,46.845,5.367,11.474,9.049,13.428,18.508,16.908,16.688,24.978,25.061,24.909,23.924,55.734,42.971,36.172,34.458,32.656,26.607,14.477,8.084,12.447,14.758,18.209,14.713,23.293,22.084,24.356,22.028,50.83,42.667,32.299,33.944,37.11,30.395,9.315,20.092,25.112,14.064,17.878,30.015,31.082,24.465,24.837,59.783,34.491,45.816,36.499,26.313,30.789,14.726,16.96,13.656,11.295,24.284,23.781,20.993,19.126,50.913,34.846,37.731,32.961,33.582,33.025,9.323,13.716,10.705,11.625,12.823,15.509,14.34,47.845,41.994,28.248,22.037,34.712,25.058,19.406,10.897,11.75,7.913,17.709,13.166,38.883,42.113,22.483,23.93,42.969,33.984,10.336,19.198,22.197,11.022,13.659,53.501,30.731,41.103,22.892,24.879,27.582,15.029,15.035,11.037,7.869,43.811,32.102,33.326,22.86,35.141,33.348,6.477,13.029,11.745,42.093,43.026,25.791,12.817,40.284,30.375,16.665,12.794,36.838,44.106,20.962,18.276,45.039,34.797,6.364,46.294,30.874,37.558,13.79,32.541,32.511,40.662,31.604,33.292,16.717,37.55,35.739,57.232,35.93,47.5,78.108,71.585,63.197,41.911,41.458,57.065,36.503,62.493,45.364,38.955,33.149,26.847,67.804,0.592,8.867,73.46,88.713,0.009
0.18400055662011242,0.09784800000000002,0.333959,68.87,0.61,9.853,74.522,-0.0148041957750382,-0.00453421225798547,0.0143399445038483,1.184748,1.046481,0.860118,,,,,,,,,,,,,,,,,,,,,,,,,0.331831,5.728,13.562,12.877,14.456,14.662,17.791,16.806,26.883,28.714,29.13,27.502,37.926,36.39,37.411,35.296,60.357,48.059,43.141,48.232,41.867,38.56,15.116,10.061,15.399,13.548,19.47,15.739,25.901,25.877,29.125,25.515,36.14,33.753,36.122,33.117,55.181,46.728,39.822,47.01,44.955,41.172,10.344,20.836,21.715,15.372,18.018,32.156,34.125,28.378,28.614,42.28,41.463,37.435,36.046,63.251,38.913,52.536,50.325,38.578,44.107,20.614,18.846,19.272,16.353,29.881,29.058,29.22,25.7,39.037,36.727,36.04,32.962,54.443,39.694,45.659,48.568,45.213,46.87,5.357,11.472,9.046,13.413,18.479,16.896,16.688,24.954,25.016,24.879,23.887,55.616,42.931,36.136,34.501,32.675,26.656,14.466,8.06,12.429,14.731,18.186,14.704,23.27,22.043,24.32,21.985,50.72,42.619,32.278,33.989,37.119,30.443,9.338,20.081,25.081,14.055,17.874,30.001,31.047,24.449,24.807,59.677,34.462,45.782,36.543,26.323,30.819,14.712,16.914,13.661,11.281,24.269,23.738,20.981,19.089,50.787,34.821,37.687,33.021,33.626,33.083,9.311,13.708,10.729,11.615,12.79,15.483,14.322,47.724,41.944,28.203,22.097,34.743,25.12,19.375,10.881,11.753,7.906,17.675,13.134,38.776,42.044,22.477,24.001,42.981,34.04,10.343,19.192,22.167,11.011,13.639,53.38,30.686,41.053,22.941,24.918,27.626,15.054,15.03,11.039,7.844,43.685,32.036,33.303,22.951,35.187,33.431,6.467,13.016,11.764,41.979,42.985,25.727,12.888,40.314,30.412,16.637,12.788,36.742,44.054,20.919,18.345,45.047,34.824,6.372,46.177,30.844,37.49,13.846,32.574,32.533,40.547,31.549,33.248,16.817,37.579,35.784,57.127,35.857,47.432,78.026,71.519,63.128,41.901,41.446,57.051,36.486,62.471,45.361,38.999,33.186,26.853,68.657,0.596,9.36,73.673,79.86,0.01
0.18800032344141668,0.09997500000000001,0.336086,69.083,0.621,10.345,74.097,-0.0140411443553097,-0.00570983205939782,0.0139117460022687,1.18217,1.043121,0.854967,,,,,,,,,,,,,,,,,,,,,,,,,0.333959,5.726,13.555,12.882,14.444,14.654,17.77,16.798,26.855,28.685,29.108,27.476,37.897,36.34,37.369,35.242,60.265,48.018,43.1,48.256,41.873,38.584,15.111,10.06,15.381,13.525,19.445,15.711,25.859,25.833,29.091,25.472,36.099,33.695,36.071,33.051,55.087,46.686,39.776,47.026,44.957,41.189,10.362,20.825,21.702,15.363,18.01,32.132,34.086,28.358,28.585,42.255,41.421,37.405,35.992,63.154,38.881,52.488,50.352,38.59,44.131,20.604,18.822,19.266,16.319,29.841,28.995,29.19,25.645,38.995,36.668,35.995,32.888,54.327,39.659,45.598,48.585,45.236,46.899,5.371,11.455,9.071,13.404,18.477,16.885,16.694,24.941,24.981,24.847,23.855,55.53,42.888,36.097,34.536,32.689,26.691,14.453,8.055,12.41,14.712,18.169,14.688,23.249,21.998,24.281,21.939,50.62,42.569,32.234,34.023,37.145,30.489,9.362,20.069,25.058,14.051,17.876,29.987,31.013,24.43,24.773,59.58,34.433,45.727,36.577,26.352,30.846,14.705,16.875,13.663,11.258,24.253,23.698,20.955,19.038,50.663,34.774,37.628,33.063,33.685,33.151,9.314,13.707,10.748,11.609,12.753,15.457,14.308,47.62,41.899,28.142,22.148,34.783,25.175,19.356,10.854,11.764,7.898,17.641,13.098,38.669,41.975,22.452,24.061,43.014,34.106,10.36,19.184,22.143,10.992,13.615,53.27,30.635,40.991,22.978,24.967,27.67,15.071,15.022,11.043,7.816,43.563,31.986,33.25,23.025,35.252,33.505,6.458,12.998,11.784,41.885,42.945,25.661,12.943,40.347,30.443,16.617,12.799,36.675,44.021,20.856,18.404,45.062,34.833,6.382,46.076,30.82,37.41,13.89,32.61,32.544,40.447,31.497,33.192,16.904,37.614,35.823,57.03,35.801,47.371,77.965,71.465,63.047,41.886,41.438,57.032,36.46,62.444,45.345,39.042,33.216,26.862,68.87,0.61,9.853,74.522,79.942,0.01
0.1920000902627209,0.102102,0.338213,68.87,0.61,11.33,74.31,-0.0125608449226374,-0.00689801872678874,0.0136193245939,1.181693,1.044518,0.856727,,,,,,,,,,,,,,,,,,,,,,,,,0.336086,5.73,13.554,12.891,14.433,14.636,17.749,16.781,26.819,28.642,29.075,27.439,37.857,36.27,37.328,35.191,60.141,47.968,43.035,48.28,41.889,38.599,15.119,10.058,15.37,13.504,19.424,15.693,25.812,25.778,29.055,25.425,36.051,33.619,36.027,32.991,54.958,46.638,39.705,47.047,44.98,41.206,10.399,20.82,21.689,15.346,17.997,32.111,34.049,28.341,28.559,42.232,41.376,37.384,35.951,63.035,38.845,52.431,50.39,38.619,44.156,20.598,18.798,19.255,16.296,29.793,28.923,29.159,25.586,38.943,36.593,35.954,32.816,54.17,39.617,45.512,48.605,45.283,46.931,5.368,11.446,9.074,13.391,18.464,16.861,16.686,24.919,24.931,24.813,23.829,55.413,42.838,36.044,34.569,32.71,26.724,14.433,8.052,12.387,14.695,18.139,14.668,23.226,21.949,24.246,21.905,50.508,42.516,32.188,34.061,37.166,30.527,9.344,20.064,25.032,14.045,17.867,29.974,30.975,24.413,24.746,59.446,34.387,45.664,36.619,26.405,30.895,14.697,16.857,13.645,11.245,24.243,23.669,20.937,19.009,50.546,34.725,37.582,33.113,33.722,33.199,9.301,13.703,10.751,11.598,12.701,15.434,14.298,47.481,41.853,28.071,22.205,34.839,25.252,19.333,10.829,11.769,7.882,17.621,13.076,38.546,41.913,22.418,24.131,43.053,34.175,10.37,19.176,22.118,10.977,13.604,53.132,30.596,40.921,23.021,25.029,27.722,15.081,15.014,11.056,7.801,43.421,31.941,33.192,23.106,35.323,33.584,6.449,12.985,11.804,41.761,42.908,25.593,13.009,40.39,30.496,16.613,12.818,36.588,43.997,20.786,18.483,45.086,34.854,6.407,45.956,30.801,37.339,13.937,32.65,32.572,40.309,31.446,33.138,16.999,37.671,35.891,56.901,35.739,47.294,77.889,71.402,62.964,41.886,41.457,57.034,36.445,62.419,45.334,39.09,33.268,26.869,69.083,0.621,10.345,74.097,83.654,0.01
0.19599985708402515,0.10422899999999999,0.34034,68.443,0.61,11.823,74.31,-0.0119411374032911,-0.00807286477713331,0.0136400513982932,1.180832,1.044369,0.857097,,,,,,,,,,,,,,,,,,,,,,,,,0.338213,5.726,13.544,12.886,14.418,14.623,17.731,16.788,26.793,28.605,29.048,27.4,37.818,36.213,37.288,35.128,60.054,47.907,42.983,48.326,41.896,38.628,15.116,10.054,15.357,13.491,19.412,15.7,25.787,25.74,29.032,25.387,36.016,33.563,35.993,32.932,54.878,46.589,39.652,47.099,44.996,41.239,10.412,20.811,21.674,15.327,17.98,32.087,34.01,28.318,28.521,42.199,41.322,37.354,35.891,62.947,38.796,52.373,50.439,38.632,44.184,20.583,18.772,19.239,16.269,29.756,28.865,29.128,25.529,38.897,36.522,35.913,32.741,54.071,39.568,45.442,48.648,45.307,46.963,5.368,11.455,9.115,13.381,18.447,16.856,16.678,24.893,24.889,24.789,23.789,55.321,42.788,35.986,34.626,32.743,26.772,14.43,8.079,12.374,14.672,18.123,14.645,23.2,21.904,24.215,21.856,50.414,42.455,32.138,34.12,37.197,30.583,9.345,20.061,25.015,14.041,17.856,29.957,30.94,24.396,24.706,59.351,34.327,45.613,36.679,26.441,30.947,14.702,16.84,13.624,11.209,24.227,23.632,20.903,18.947,50.441,34.636,37.546,33.174,33.762,33.277,9.3,13.697,10.758,11.58,12.67,15.41,14.273,47.38,41.795,28.014,22.272,34.881,25.317,19.319,10.815,11.779,7.866,17.605,13.051,38.451,41.851,22.382,24.219,43.093,34.243,10.376,19.161,22.089,10.961,13.576,53.027,30.537,40.861,23.081,25.085,27.778,15.093,14.997,11.067,7.777,43.318,31.886,33.142,23.207,35.383,33.658,6.457,12.97,11.819,41.674,42.861,25.541,13.086,40.421,30.531,16.591,12.808,36.502,43.937,20.741,18.567,45.111,34.895,6.419,45.859,30.766,37.273,14.006,32.694,32.603,40.215,31.391,33.086,17.112,37.711,35.939,56.811,35.682,47.244,77.839,71.36,62.878,41.887,41.45,57.019,36.444,62.4,45.33,39.149,33.318,26.882,68.87,0.61,11.33,74.31,77.637,0.011
0.1999996239053295,0.10635600000000003,0.342467,68.443,0.596,12.808,73.885,-0.0102081015362354,-0.0102976576414096,0.0139328009677204,1.180252,1.044454,0.856968,,,,,,,,,,,,,,,,,,,,,,,,,0.34034,5.78,13.535,12.897,14.393,14.605,17.708,16.753,26.761,28.556,29.005,27.369,37.77,36.157,37.243,35.069,59.95,47.849,42.906,48.332,41.894,38.597,15.12,10.055,15.347,13.462,19.409,15.665,25.746,25.658,28.991,25.337,35.942,33.483,35.937,32.851,54.724,46.522,39.537,47.092,45.033,41.244,10.368,20.811,21.657,15.324,17.947,32.065,33.951,28.299,28.492,42.162,41.269,37.326,35.836,62.792,38.747,52.282,50.467,38.694,44.202,20.574,18.754,19.21,16.236,29.729,28.806,29.086,25.493,38.846,36.476,35.871,32.677,53.947,39.499,45.366,48.659,45.33,46.966,5.377,11.466,9.117,13.372,18.431,16.842,16.677,24.877,24.85,24.769,23.76,55.224,42.749,35.928,34.657,32.766,26.789,14.43,8.074,12.364,14.642,18.1,14.63,23.17,21.861,24.186,21.813,50.308,42.399,32.077,34.144,37.227,30.619,9.325,20.054,24.989,14.029,17.848,29.951,30.906,24.378,24.673,59.227,34.278,45.557,36.72,26.49,30.985,14.707,16.825,13.612,11.217,24.222,23.618,20.897,18.927,50.344,34.592,37.501,33.225,33.798,33.317,9.316,13.678,10.759,11.574,12.638,15.387,14.254,47.292,41.745,27.979,22.303,34.902,25.382,19.298,10.794,11.77,7.873,17.592,13.025,38.355,41.778,22.355,24.267,43.128,34.329,10.37,19.164,22.056,10.953,13.558,52.902,30.503,40.806,23.131,25.145,27.849,15.084,14.981,11.061,7.749,43.2,31.837,33.094,23.256,35.437,33.736,6.399,12.971,11.818,41.553,42.818,25.482,13.141,40.478,30.646,16.57,12.802,36.452,43.89,20.713,18.586,45.118,34.942,6.43,45.745,30.737,37.227,14.056,32.739,32.679,40.101,31.343,33.04,17.181,37.758,36.02,56.628,35.663,47.155,77.774,71.356,62.786,41.896,41.514,57.055,36.429,62.383,45.358,39.217,33.437,26.872,68.443,0.61,11.823,74.31,64.99,0.011
0.20399939072663373,0.10848300000000002,0.344594,68.657,0.588,13.301,74.31,-0.00775740632683527,-0.0132877119351178,0.0135347944034186,1.179923,1.044495,0.856247,,,,,,,,,,,,,,,,,,,,,,,,,0.342467,5.785,13.529,12.901,14.379,14.588,17.693,16.735,26.731,28.513,28.971,27.34,37.736,36.107,37.208,35.018,59.869,47.806,42.867,48.351,41.906,38.627,15.124,10.051,15.322,13.424,19.386,15.626,25.702,25.597,28.943,25.288,35.894,33.415,35.889,32.784,54.634,46.469,39.488,47.095,45.043,41.271,10.401,20.798,21.637,15.3,17.924,32.036,33.906,28.267,28.461,42.134,41.221,37.299,35.787,62.721,38.718,52.242,50.486,38.695,44.216,20.565,18.723,19.2,16.201,29.696,28.745,29.054,25.446,38.808,36.411,35.84,32.615,53.849,39.463,45.312,48.672,45.361,47.006,5.386,11.471,9.136,13.355,18.402,16.826,16.675,24.855,24.814,24.745,23.728,55.141,42.711,35.881,34.69,32.8,26.84,14.425,8.07,12.356,14.609,18.079,14.615,23.153,21.825,24.161,21.773,50.218,42.345,32.038,34.18,37.266,30.691,9.329,20.041,24.953,14.015,17.835,29.934,30.87,24.358,24.636,59.137,34.236,45.51,36.754,26.528,31.031,14.709,16.793,13.608,11.205,24.218,23.586,20.89,18.893,50.251,34.544,37.461,33.272,33.853,33.393,9.311,13.661,10.774,11.567,12.623,15.366,14.241,47.213,41.695,27.933,22.348,34.936,25.445,19.262,10.772,11.78,7.867,17.568,12.998,38.284,41.707,22.337,24.312,43.151,34.393,10.368,19.15,22.022,10.94,13.535,52.806,30.464,40.741,23.173,25.201,27.897,15.098,14.963,11.069,7.727,43.107,31.781,33.052,23.315,35.491,33.813,6.409,12.957,11.834,41.48,42.773,25.424,13.181,40.509,30.689,16.546,12.787,36.373,43.82,20.671,18.628,45.143,34.999,6.445,45.667,30.708,37.16,14.09,32.772,32.704,40.02,31.287,32.989,17.245,37.793,36.071,56.522,35.612,47.079,77.731,71.336,62.696,41.873,41.524,57.05,36.388,62.366,45.371,39.28,33.501,26.874,68.443,0.596,12.808,73.885,44.836,0.012
0.20799915754793796,0.11061000000000001,0.346721,69.083,0.599,13.793,74.734,-0.00582404367101968,-0.0160651213454586,0.0134177699398163,1.179704,1.045027,0.851599,,,,,,,,,,,,,,,,,,,,,,,,,0.344594,5.769,13.538,12.908,14.363,14.565,17.674,16.719,26.689,28.47,28.939,27.295,37.692,36.053,37.165,34.966,59.772,47.76,42.824,48.374,41.919,38.655,15.136,10.056,15.304,13.403,19.368,15.613,25.666,25.561,28.913,25.248,35.858,33.37,35.855,32.742,54.553,46.434,39.454,47.125,45.057,41.297,10.441,20.801,21.636,15.289,17.917,32.018,33.881,28.252,28.429,42.116,41.185,37.281,35.757,62.646,38.684,52.22,50.531,38.711,44.251,20.545,18.689,19.185,16.158,29.645,28.675,29.011,25.369,38.753,36.334,35.789,32.546,53.726,39.415,45.249,48.681,45.388,47.037,5.383,11.47,9.15,13.326,18.375,16.808,16.659,24.822,24.771,24.71,23.689,55.043,42.665,35.842,34.725,32.831,26.889,14.421,8.081,12.339,14.588,18.064,14.599,23.131,21.791,24.136,21.742,50.126,42.301,32.008,34.225,37.301,30.746,9.333,20.026,24.93,14.012,17.821,29.917,30.832,24.342,24.609,59.048,34.199,45.475,36.802,26.566,31.075,14.709,16.771,13.599,11.179,24.21,23.553,20.873,18.861,50.154,34.49,37.435,33.326,33.9,33.461,9.314,13.65,10.8,11.562,12.608,15.35,14.231,47.132,41.653,27.904,22.409,34.966,25.491,19.234,10.761,11.785,7.859,17.546,12.974,38.2,41.648,22.327,24.366,43.178,34.447,10.369,19.135,21.979,10.921,13.505,52.704,30.42,40.695,23.222,25.256,27.945,15.128,14.95,11.087,7.723,43.011,31.725,33.031,23.402,35.546,33.888,6.403,12.947,11.846,41.409,42.741,25.383,13.235,40.533,30.709,16.507,12.759,36.299,43.753,20.661,18.664,45.151,35.03,6.448,45.587,30.684,37.111,14.139,32.802,32.718,39.942,31.246,32.955,17.311,37.821,36.102,56.438,35.553,47.014,77.684,71.295,62.632,41.868,41.524,57.039,36.376,62.362,45.38,39.34,33.549,26.883,68.657,0.588,13.301,74.31,24.193,0.012
0.2119989243692422,0.112737,0.348848,69.51,0.599,14.779,74.947,-0.00494963144932101,-0.0176379274219733,0.0131645180062045,1.178715,1.045869,0.850693,,,,,,,,,,,,,,,,,,,,,,,,,0.346721,5.753,13.537,12.915,14.352,14.556,17.661,16.708,26.663,28.43,28.909,27.271,37.656,35.998,37.131,34.907,59.687,47.713,42.777,48.412,41.95,38.7,15.123,10.061,15.279,13.372,19.343,15.582,25.634,25.521,28.872,25.214,35.82,33.313,35.814,32.677,54.481,46.383,39.415,47.158,45.072,41.331,10.45,20.78,21.614,15.262,17.883,31.979,33.824,28.202,28.379,42.069,41.112,37.234,35.68,62.553,38.63,52.161,50.552,38.723,44.277,20.533,18.658,19.177,16.114,29.614,28.62,28.971,25.315,38.71,36.262,35.747,32.468,53.63,39.366,45.194,48.71,45.42,47.082,5.409,11.466,9.175,13.307,18.342,16.792,16.661,24.794,24.726,24.683,23.646,54.953,42.613,35.788,34.771,32.877,26.949,14.432,8.085,12.331,14.544,18.056,14.588,23.105,21.738,24.111,21.69,50.015,42.244,31.947,34.277,37.368,30.834,9.358,20.011,24.898,13.996,17.818,29.897,30.789,24.327,24.571,58.967,34.159,45.423,36.851,26.607,31.115,14.714,16.734,13.599,11.162,24.198,23.507,20.86,18.812,50.045,34.43,37.383,33.39,33.974,33.55,9.308,13.642,10.832,11.553,12.589,15.333,14.219,47.055,41.598,27.857,22.469,35.001,25.541,19.204,10.746,11.785,7.842,17.519,12.942,38.131,41.578,22.304,24.426,43.2,34.495,10.378,19.127,21.944,10.915,13.485,52.614,30.361,40.637,23.285,25.307,27.993,15.147,14.927,11.094,7.689,42.911,31.653,32.991,23.488,35.608,33.972,6.408,12.934,11.865,41.335,42.688,25.327,13.296,40.558,30.734,16.474,12.736,36.221,43.673,20.627,18.724,45.167,35.069,6.464,45.504,30.64,37.045,14.198,32.834,32.738,39.859,31.183,32.902,17.41,37.854,36.143,56.352,35.496,46.958,77.639,71.258,62.542,41.852,41.503,57.013,36.353,62.347,45.379,39.394,33.588,26.899,69.083,0.599,13.793,74.734,14.667,0.013
0.21600057166389924,0.11486500000000002,0.350976,69.723,0.617,15.271,75.583,-0.00434084775937159,-0.0187772763505771,0.0127538429212807,1.175589,1.04378,0.84806,,,,,,,,,,,,,,,,,,,,,,,,,0.348848,5.767,13.518,12.907,14.346,14.548,17.639,16.702,26.64,28.396,28.88,27.235,37.623,35.944,37.098,34.853,59.585,47.675,42.721,48.44,41.963,38.733,15.111,10.059,15.24,13.321,19.306,15.528,25.569,25.444,28.807,25.131,35.747,33.22,35.738,32.581,54.351,46.325,39.325,47.146,45.071,41.343,10.42,20.776,21.605,15.265,17.867,31.96,33.788,28.189,28.344,42.039,41.066,37.211,35.629,62.437,38.621,52.085,50.596,38.751,44.313,20.516,18.64,19.158,16.067,29.58,28.579,28.931,25.256,38.673,36.214,35.699,32.401,53.531,39.334,45.128,48.736,45.422,47.107,5.414,11.456,9.207,13.293,18.317,16.773,16.65,24.763,24.673,24.662,23.605,54.841,42.567,35.725,34.801,32.912,26.996,14.432,8.105,12.318,14.516,18.042,14.572,23.081,21.688,24.09,21.65,49.902,42.203,31.881,34.314,37.412,30.891,9.385,20.002,24.88,13.992,17.818,29.875,30.755,24.321,24.542,58.863,34.138,45.356,36.9,26.633,31.14,14.723,16.711,13.6,11.133,24.186,23.474,20.842,18.763,49.909,34.371,37.319,33.446,34.039,33.638,9.295,13.632,10.848,11.535,12.543,15.324,14.2,46.936,41.54,27.791,22.512,35.055,25.609,19.186,10.738,11.795,7.83,17.502,12.927,38.031,41.523,22.248,24.479,43.241,34.552,10.392,19.103,21.915,10.914,13.462,52.488,30.307,40.561,23.34,25.363,28.037,15.165,14.927,11.104,7.671,42.78,31.593,32.925,23.577,35.677,34.055,6.411,12.92,11.88,41.24,42.622,25.274,13.33,40.588,30.766,16.461,12.75,36.147,43.628,20.554,18.77,45.191,35.086,6.456,45.364,30.57,36.964,14.272,32.898,32.794,39.744,31.114,32.834,17.504,37.895,36.192,56.226,35.408,46.867,77.568,71.205,62.428,41.839,41.475,56.985,36.305,62.336,45.393,39.471,33.629,26.924,69.51,0.599,14.779,74.947,11.627,0.013
0.2200003384852035,0.11699200000000001,0.353103,69.51,0.624,15.764,75.159,-0.00397089408129541,-0.0203626723330283,0.0123297876955446,1.172184,1.044255,0.85098,,,,,,,,,,,,,,,,,,,,,,,,,0.350976,5.793,13.509,12.907,14.328,14.529,17.622,16.671,26.607,28.354,28.848,27.214,37.578,35.881,37.062,34.797,59.458,47.63,42.678,48.467,41.991,38.73,15.093,10.045,15.227,13.303,19.291,15.491,25.529,25.387,28.769,25.092,35.689,33.143,35.692,32.511,54.197,46.264,39.263,47.156,45.112,41.362,10.381,20.77,21.577,15.258,17.839,31.929,33.736,28.174,28.316,42.002,40.999,37.187,35.573,62.275,38.584,52.025,50.645,38.81,44.336,20.503,18.623,19.133,16.045,29.548,28.537,28.9,25.225,38.63,36.153,35.67,32.349,53.395,39.291,45.075,48.764,45.453,47.12,5.399,11.464,9.195,13.276,18.291,16.757,16.655,24.738,24.628,24.639,23.566,54.733,42.526,35.707,34.848,32.962,27.027,14.414,8.08,12.3,14.496,18.008,14.564,23.053,21.647,24.058,21.605,49.803,42.144,31.874,34.347,37.443,30.923,9.372,19.993,24.856,13.988,17.82,29.866,30.717,24.31,24.507,58.745,34.093,45.339,36.974,26.688,31.178,14.711,16.692,13.59,11.143,24.175,23.44,20.839,18.74,49.808,34.34,37.297,33.509,34.085,33.672,9.285,13.61,10.856,11.526,12.517,15.301,14.172,46.849,41.486,27.793,22.557,35.102,25.674,19.154,10.721,11.778,7.81,17.481,12.902,37.953,41.461,22.246,24.501,43.278,34.61,10.393,19.095,21.876,10.903,13.43,52.38,30.272,40.536,23.417,25.427,28.088,15.163,14.897,11.104,7.637,42.665,31.538,32.905,23.637,35.743,34.134,6.392,12.916,11.88,41.158,42.581,25.252,13.363,40.647,30.843,16.436,12.731,36.085,43.562,20.553,18.78,45.221,35.144,6.459,45.284,30.543,36.941,14.337,32.94,32.839,39.667,31.069,32.812,17.566,37.93,36.241,56.089,35.323,46.771,77.524,71.2,62.352,41.863,41.484,56.992,36.274,62.39,45.477,39.602,33.751,26.949,69.723,0.617,15.271,75.583,15.034,0.014
0.22400010530650774,0.119119,0.35523,69.083,0.617,16.256,75.159,-0.0031486757393433,-0.0220093678975197,0.0121945368857891,1.171066,1.043779,0.849865,,,,,,,,,,,,,,,,,,,,,,,,,0.353103,5.81,13.512,12.896,14.311,14.506,17.611,16.646,26.566,28.306,28.814,27.17,37.533,35.815,37.017,34.732,59.323,47.58,42.636,48.493,42.008,38.745,15.099,10.029,15.215,13.279,19.281,15.457,25.485,25.326,28.732,25.036,35.633,33.054,35.644,32.436,54.038,46.196,39.202,47.158,45.14,41.395,10.371,20.762,21.562,15.245,17.82,31.902,33.689,28.152,28.269,41.972,40.928,37.163,35.517,62.127,38.551,51.98,50.689,38.811,44.358,20.48,18.597,19.105,16.006,29.508,28.48,28.864,25.167,38.584,36.057,35.64,32.285,53.242,39.235,45.012,48.769,45.455,47.139,5.39,11.465,9.197,13.252,18.265,16.735,16.638,24.716,24.602,24.598,23.515,54.641,42.474,35.693,34.902,33.009,27.075,14.404,8.073,12.281,14.475,17.984,14.548,23.03,21.612,24.025,21.559,49.715,42.083,31.86,34.383,37.486,30.975,9.374,19.979,24.822,13.975,17.789,29.854,30.679,24.284,24.458,58.635,34.054,45.317,37.049,26.724,31.223,14.706,16.659,13.59,11.119,24.164,23.39,20.831,18.699,49.698,34.29,37.264,33.564,34.142,33.738,9.287,13.596,10.88,11.528,12.538,15.271,14.15,46.806,41.427,27.792,22.615,35.166,25.743,19.122,10.712,11.769,7.775,17.454,12.865,37.9,41.36,22.243,24.5,43.327,34.689,10.385,19.092,21.851,10.882,13.396,52.307,30.238,40.507,23.504,25.491,28.141,15.188,14.871,11.12,7.619,42.596,31.452,32.893,23.695,35.797,34.218,6.43,12.898,11.88,41.128,42.515,25.221,13.379,40.735,30.929,16.407,12.682,35.997,43.423,20.544,18.789,45.308,35.284,6.477,45.266,30.521,36.9,14.373,32.977,32.856,39.633,30.996,32.775,17.592,37.968,36.289,55.895,35.253,46.667,77.521,71.251,62.222,41.836,41.501,57.011,36.207,62.468,45.586,39.815,33.937,27.014,69.51,0.624,15.764,75.159,17.971,0.014
0.22799987212781198,0.12124599999999999,0.357357,68.657,0.606,16.749,75.159,-0.00265816654985202,-0.024155996059093,0.0127433652713897,1.169981,1.042912,0.849218,,,,,,,,,,,,,,,,,,,,,,,,,0.35523,5.814,13.499,12.892,14.297,14.496,17.59,16.631,26.541,28.267,28.785,27.131,37.501,35.762,36.975,34.672,59.215,47.536,42.598,48.525,42.009,38.786,15.101,10.02,15.195,13.257,19.263,15.434,25.453,25.273,28.696,24.987,35.593,32.99,35.597,32.369,53.922,46.15,39.15,47.179,45.147,41.436,10.4,20.751,21.555,15.22,17.803,31.877,33.649,28.12,28.236,41.943,40.876,37.13,35.464,62.024,38.534,51.936,50.724,38.8,44.385,20.461,18.572,19.089,15.969,29.469,28.41,28.821,25.107,38.536,35.978,35.591,32.209,53.104,39.199,44.939,48.779,45.467,47.178,5.394,11.473,9.215,13.237,18.243,16.732,16.625,24.692,24.562,24.571,23.475,54.543,42.437,35.655,34.951,33.045,27.135,14.413,8.087,12.27,14.446,17.978,14.528,23.008,21.567,23.998,21.516,49.613,42.04,31.817,34.428,37.527,31.043,9.38,19.972,24.804,13.969,17.782,29.84,30.646,24.267,24.423,58.537,34.024,45.283,37.108,26.751,31.278,14.707,16.635,13.579,11.097,24.154,23.353,20.809,18.655,49.592,34.237,37.23,33.615,34.184,33.815,9.299,13.593,10.885,11.518,12.52,15.247,14.128,46.73,41.369,27.768,22.67,35.207,25.807,19.11,10.691,11.79,7.765,17.439,12.841,37.814,41.284,22.222,24.556,43.373,34.769,10.388,19.082,21.825,10.865,13.366,52.207,30.176,40.471,23.568,25.551,28.213,15.197,14.845,11.13,7.599,42.497,31.399,32.85,23.764,35.858,34.295,6.447,12.881,11.889,41.074,42.45,25.196,13.418,40.773,30.972,16.382,12.663,35.93,43.338,20.519,18.83,45.343,35.342,6.486,45.192,30.473,36.85,14.424,33.024,32.89,39.559,30.929,32.731,17.658,38.008,36.338,55.756,35.182,46.592,77.487,71.242,62.119,41.795,41.512,57.012,36.189,62.489,45.635,39.927,34.033,27.042,69.083,0.617,16.256,75.159,10.934,0.015
0.23199963894911632,0.12337300000000004,0.359484,68.657,0.596,17.242,74.522,-0.00124097473569897,-0.0260733710058337,0.0131394381867697,1.169428,1.042257,0.848416,,,,,,,,,,,,,,,,,,,,,,,,,0.357357,5.814,13.496,12.899,14.276,14.476,17.572,16.61,26.504,28.221,28.751,27.095,37.457,35.705,36.929,34.612,59.123,47.495,42.559,48.563,42.022,38.819,15.098,10.019,15.171,13.227,19.237,15.412,25.411,25.222,28.656,24.942,35.547,32.931,35.548,32.3,53.829,46.104,39.112,47.213,45.162,41.474,10.416,20.74,21.54,15.195,17.77,31.849,33.608,28.095,28.204,41.914,40.829,37.097,35.414,61.942,38.511,51.903,50.778,38.815,44.417,20.449,18.546,19.065,15.94,29.432,28.355,28.787,25.055,38.497,35.921,35.548,32.138,53.004,39.163,44.898,48.823,45.495,47.225,5.401,11.482,9.223,13.221,18.217,16.719,16.621,24.666,24.517,24.542,23.443,54.452,42.393,35.621,35.004,33.083,27.197,14.411,8.1,12.256,14.415,17.962,14.513,22.985,21.525,23.969,21.473,49.516,41.988,31.788,34.484,37.57,31.12,9.347,19.963,24.772,13.96,17.767,29.823,30.604,24.24,24.389,58.44,33.972,45.253,37.172,26.801,31.347,14.714,16.631,13.561,11.095,24.158,23.34,20.794,18.629,49.526,34.18,37.231,33.694,34.211,33.883,9.289,13.581,10.897,11.505,12.485,15.227,14.115,46.641,41.31,27.74,22.734,35.249,25.886,19.081,10.674,11.796,7.76,17.421,12.808,37.737,41.214,22.221,24.626,43.402,34.841,10.391,19.071,21.785,10.845,13.355,52.114,30.123,40.434,23.64,25.609,28.276,15.216,14.83,11.137,7.576,42.403,31.337,32.831,23.861,35.919,34.386,6.435,12.881,11.914,41.005,42.401,25.162,13.48,40.806,31.017,16.358,12.645,35.872,43.269,20.509,18.881,45.355,35.382,6.518,45.119,30.421,36.817,14.509,33.057,32.931,39.464,30.867,32.698,17.775,38.064,36.413,55.667,35.126,46.548,77.451,71.226,62.051,41.8,41.512,57.006,36.184,62.497,45.668,40.002,34.094,27.054,68.657,0.606,16.749,75.159,-0.673,0.015
0.23599940577042056,0.12550000000000003,0.361611,68.87,0.592,17.734,74.947,-0.000918003932006986,-0.0280073735265091,0.0133225439708956,1.167076,1.04108,0.848316,,,,,,,,,,,,,,,,,,,,,,,,,0.359484,5.837,13.49,12.901,14.256,14.452,17.546,16.602,26.471,28.18,28.721,27.045,37.411,35.655,36.893,34.548,58.997,47.443,42.508,48.583,42.061,38.823,15.108,10.024,15.159,13.2,19.232,15.409,25.376,25.169,28.632,24.884,35.493,32.869,35.509,32.231,53.681,46.066,39.034,47.227,45.224,41.495,10.403,20.728,21.516,15.185,17.751,31.822,33.567,28.086,28.156,41.882,40.776,37.073,35.361,61.797,38.461,51.844,50.827,38.9,44.454,20.429,18.515,19.045,15.916,29.396,28.309,28.76,24.988,38.453,35.862,35.506,32.072,52.861,39.12,44.83,48.85,45.557,47.251,5.401,11.471,9.234,13.206,18.192,16.699,16.602,24.639,24.485,24.522,23.393,54.343,42.34,35.596,35.04,33.122,27.241,14.399,8.108,12.249,14.394,17.941,14.485,22.962,21.496,23.948,21.422,49.406,41.937,31.763,34.521,37.613,31.172,9.339,19.948,24.75,13.966,17.755,29.812,30.571,24.237,24.357,58.327,33.925,45.222,37.239,26.875,31.399,14.71,16.617,13.544,11.061,24.147,23.31,20.772,18.581,49.412,34.12,37.21,33.747,34.266,33.949,9.283,13.55,10.908,11.492,12.471,15.21,14.076,46.555,41.264,27.735,22.769,35.267,25.948,19.048,10.659,11.785,7.75,17.398,12.771,37.657,41.18,22.207,24.654,43.425,34.894,10.401,19.052,21.736,10.837,13.323,52.003,30.09,40.394,23.703,25.671,28.344,15.242,14.813,11.158,7.564,42.29,31.302,32.803,23.958,35.989,34.482,6.42,12.884,11.916,40.936,42.388,25.136,13.513,40.824,31.075,16.318,12.601,35.803,43.22,20.515,18.886,45.357,35.439,6.513,45.017,30.393,36.784,14.592,33.104,33.014,39.379,30.857,32.656,17.857,38.096,36.468,55.59,35.05,46.483,77.401,71.211,62.003,41.86,41.526,57.027,36.152,62.505,45.713,40.073,34.184,27.056,68.657,0.596,17.242,74.522,-18.236,0.016
0.2399991725917248,0.12762700000000002,0.363738,69.083,0.599,18.227,75.371,2.99355073793811e-05,-0.0295646174373829,0.0131532567070067,1.165071,1.040513,0.84714,,,,,,,,,,,,,,,,,,,,,,,,,0.361611,5.815,13.489,12.895,14.241,14.432,17.529,16.571,26.435,28.136,28.685,27.0,37.367,35.594,36.847,34.488,58.905,47.398,42.47,48.628,42.101,38.864,15.105,10.02,15.137,13.177,19.207,15.373,25.336,25.128,28.59,24.835,35.454,32.811,35.464,32.175,53.609,46.025,39.009,47.275,45.25,41.525,10.431,20.718,21.505,15.171,17.737,31.797,33.532,28.054,28.118,41.859,40.727,37.04,35.316,61.729,38.431,51.819,50.882,38.927,44.482,20.413,18.489,19.038,15.881,29.351,28.248,28.718,24.923,38.414,35.786,35.46,32.008,52.765,39.086,44.784,48.894,45.6,47.289,5.402,11.465,9.231,13.192,18.173,16.682,16.593,24.608,24.448,24.491,23.353,54.259,42.3,35.564,35.098,33.17,27.294,14.391,8.093,12.232,14.372,17.92,14.466,22.938,21.457,23.918,21.382,49.323,41.896,31.737,34.585,37.662,31.23,9.35,19.938,24.725,13.954,17.747,29.795,30.535,24.216,24.324,58.249,33.895,45.188,37.301,26.924,31.436,14.699,16.586,13.539,11.044,24.138,23.27,20.76,18.55,49.326,34.095,37.174,33.826,34.331,34.008,9.27,13.546,10.919,11.472,12.445,15.19,14.047,46.459,41.219,27.693,22.845,35.323,26.016,19.023,10.639,11.798,7.734,17.376,12.742,37.575,41.124,22.2,24.738,43.462,34.955,10.408,19.047,21.707,10.821,13.293,51.909,30.043,40.35,23.775,25.73,28.395,15.276,14.795,11.175,7.552,42.195,31.257,32.775,24.069,36.056,34.558,6.444,12.89,11.941,40.878,42.371,25.088,13.595,40.848,31.082,16.296,12.579,35.715,43.16,20.489,18.973,45.386,35.487,6.515,44.94,30.362,36.737,14.67,33.131,33.032,39.308,30.82,32.619,17.956,38.122,36.495,55.524,34.992,46.446,77.36,71.173,61.946,41.871,41.511,57.012,36.155,62.51,45.723,40.122,34.222,27.074,68.87,0.592,17.734,74.947,-33.903,0.017
0.24399893941302903,0.129754,0.365865,69.296,0.606,18.227,75.371,0.000331604160177516,-0.0314198249929369,0.0127614136519258,1.163357,1.040951,0.843847,,,,,,,,,,,,,,,,,,,,,,,,,0.363738,5.867,13.472,12.904,14.218,14.4,17.507,16.546,26.402,28.093,28.651,26.959,37.319,35.532,36.806,34.43,58.795,47.328,42.445,48.638,42.144,38.877,15.099,10.003,15.122,13.133,19.191,15.33,25.285,25.049,28.539,24.756,35.382,32.711,35.395,32.082,53.442,45.922,38.951,47.257,45.31,41.566,10.416,20.7,21.474,15.156,17.702,31.766,33.486,28.032,28.082,41.825,40.666,37.015,35.268,61.607,38.381,51.779,50.911,38.978,44.497,20.399,18.464,19.011,15.844,29.316,28.198,28.674,24.864,38.372,35.715,35.413,31.944,52.638,38.996,44.751,48.9,45.635,47.313,5.399,11.464,9.24,13.183,18.156,16.67,16.59,24.583,24.417,24.473,23.318,54.18,42.249,35.554,35.133,33.23,27.337,14.382,8.103,12.23,14.361,17.906,14.458,22.922,21.429,23.902,21.351,49.247,41.837,31.732,34.623,37.719,31.284,9.333,19.927,24.702,13.949,17.743,29.78,30.504,24.207,24.293,58.159,33.849,45.169,37.35,26.986,31.473,14.704,16.58,13.526,11.039,24.14,23.25,20.752,18.526,49.25,34.029,37.172,33.877,34.383,34.064,9.263,13.529,10.926,11.452,12.431,15.166,14.016,46.397,41.162,27.681,22.879,35.376,26.087,18.995,10.616,11.799,7.711,17.348,12.71,37.518,41.051,22.193,24.765,43.506,35.023,10.418,19.036,21.682,10.815,13.265,51.828,30.004,40.317,23.83,25.796,28.449,15.295,14.772,11.186,7.536,42.105,31.201,32.743,24.135,36.131,34.642,6.471,12.886,11.954,40.857,42.343,25.051,13.627,40.888,31.127,16.275,12.557,35.66,43.09,20.459,19.01,45.434,35.565,6.508,44.874,30.336,36.687,14.722,33.182,33.084,39.256,30.779,32.575,18.012,38.16,36.542,55.393,34.933,46.41,77.343,71.198,61.854,41.892,41.528,57.022,36.11,62.553,45.794,40.209,34.31,27.101,69.083,0.599,18.227,75.371,-40.104,0.017
0.24800058670768607,0.13188200000000003,0.367993,69.296,0.621,18.227,76.008,0.0013774440232557,-0.0332713585503232,0.012517505207406,1.162332,1.040812,0.844589,,,,,,,,,,,,,,,,,,,,,,,,,0.365865,5.852,13.469,12.906,14.199,14.376,17.499,16.526,26.369,28.048,28.616,26.921,37.278,35.467,36.764,34.371,58.714,47.278,42.41,48.669,42.167,38.908,15.093,10.003,15.097,13.105,19.17,15.303,25.251,25.004,28.501,24.714,35.341,32.649,35.354,32.023,53.373,45.871,38.927,47.29,45.325,41.595,10.435,20.69,21.457,15.128,17.684,31.746,33.448,28.011,28.052,41.799,40.616,36.996,35.223,61.547,38.353,51.753,50.956,38.99,44.52,20.379,18.43,18.979,15.802,29.277,28.133,28.638,24.804,38.324,35.642,35.373,31.872,52.55,38.949,44.711,48.927,45.657,47.345,5.398,11.486,9.254,13.169,18.136,16.652,16.581,24.56,24.37,24.443,23.282,54.107,42.196,35.516,35.18,33.277,27.392,14.385,8.103,12.223,14.341,17.887,14.442,22.905,21.387,23.873,21.311,49.174,41.776,31.709,34.677,37.764,31.349,9.331,19.932,24.68,13.936,17.724,29.771,30.466,24.188,24.253,58.081,33.772,45.143,37.405,27.036,31.542,14.709,16.556,13.523,11.022,24.133,23.215,20.742,18.491,49.177,33.969,37.148,33.942,34.437,34.133,9.269,13.519,10.942,11.443,12.399,15.139,14.0,46.33,41.101,27.639,22.939,35.428,26.149,18.977,10.6,11.809,7.698,17.325,12.681,37.448,40.97,22.183,24.839,43.55,35.098,10.426,19.028,21.651,10.81,13.252,51.768,29.954,40.267,23.888,25.843,28.482,15.311,14.757,11.199,7.518,42.038,31.133,32.716,24.223,36.187,34.713,6.467,12.864,11.964,40.795,42.282,24.993,13.694,40.935,31.173,16.245,12.543,35.611,43.016,20.424,19.079,45.461,35.605,6.526,44.824,30.301,36.621,14.773,33.218,33.094,39.2,30.714,32.533,18.106,38.199,36.586,55.327,34.887,46.391,77.328,71.189,61.771,41.872,41.497,56.989,36.09,62.557,45.807,40.275,34.356,27.124,69.296,0.606,18.227,75.371,-42.592,0.018
0.2520003535289903,0.13400900000000002,0.37012,69.083,0.621,18.72,75.583,0.0022733898108134,-0.0350133890809414,0.0119518133641932,1.160227,1.042284,0.846238,,,,,,,,,,,,,,,,,,,,,,,,,0.367993,5.824,13.474,12.898,14.189,14.354,17.482,16.508,26.343,27.996,28.593,26.876,37.234,35.407,36.723,34.308,58.627,47.246,42.372,48.732,42.194,38.959,15.093,10.008,15.071,13.069,19.135,15.27,25.215,24.95,28.459,24.656,35.293,32.586,35.302,31.951,53.305,45.831,38.904,47.343,45.325,41.625,10.448,20.683,21.443,15.109,17.674,31.73,33.412,27.986,28.017,41.774,40.574,36.97,35.175,61.5,38.337,51.738,51.029,38.987,44.546,20.366,18.399,18.958,15.768,29.248,28.076,28.597,24.737,38.284,35.578,35.328,31.799,52.483,38.909,44.691,48.985,45.659,47.38,5.409,11.476,9.265,13.158,18.113,16.644,16.576,24.532,24.337,24.413,23.245,54.038,42.165,35.486,35.254,33.308,27.445,14.375,8.095,12.22,14.312,17.875,14.419,22.883,21.35,23.842,21.265,49.096,41.731,31.688,34.757,37.801,31.422,9.341,19.923,24.657,13.937,17.727,29.757,30.439,24.18,24.231,58.028,33.767,45.113,37.49,27.062,31.572,14.71,16.527,13.518,10.999,24.121,23.18,20.724,18.449,49.107,33.935,37.126,34.031,34.476,34.197,9.274,13.515,10.967,11.425,12.385,15.112,13.983,46.263,41.06,27.608,23.021,35.46,26.204,18.96,10.58,11.823,7.69,17.306,12.653,37.381,40.915,22.179,24.94,43.579,35.164,10.447,19.021,21.631,10.795,13.235,51.697,29.91,40.232,23.974,25.885,28.53,15.339,14.744,11.221,7.501,41.956,31.088,32.691,24.351,36.248,34.798,6.488,12.854,11.988,40.741,42.249,24.949,13.783,40.959,31.197,16.223,12.527,35.536,42.957,20.396,19.175,45.489,35.66,6.546,44.765,30.275,36.57,14.861,33.245,33.109,39.134,30.668,32.497,18.232,38.232,36.631,55.269,34.84,46.367,77.299,71.171,61.715,41.887,41.486,56.978,36.092,62.554,45.82,40.348,34.41,27.136,69.296,0.621,18.227,76.008,-40.369,0.019
