cardiac cycle [%],t abs [s],t [s],LVP [mmHg],ECG [mV],LAD Flow [ml/s],AoP [mmHg],rad strain,circ strain,long strain,tissue vol ischemic [ml],tissue vol border [ml],tissue vol remote [ml]
0.0,0.0,0.197354,4.691,1.049,46.306,61.146,0.0,0.0,0.0,1.189417,1.117521,0.991897
0.006210937728666105,0.0031829999999999914,0.200537,5.544,0.899,45.813,60.297,0.00117537678166464,-0.000908426887819332,-0.00146421780141034,1.188591,1.120065,0.99417
0.012421875457332263,0.0063660000000000105,0.20372,5.97,0.735,45.813,60.085,0.00178186549455549,-0.00164291740793238,-0.00301676681774261,1.186172,1.121505,0.995154
0.018632813185998368,0.009549000000000002,0.206903,7.463,0.703,44.828,58.811,0.00218539013545319,-0.00239892827528477,-0.00402177685413072,1.183017,1.121952,0.994569
0.024843750914664474,0.012731999999999993,0.210086,10.021,0.713,45.321,59.872,0.00225842974555879,-0.00296818878094992,-0.00480712741801303,1.179549,1.1201,0.994496
0.031054688643330577,0.015914999999999985,0.213269,13.433,0.703,44.828,60.085,0.00258752628194559,-0.00328251278620537,-0.00569939217372281,1.177637,1.117088,0.993074
0.03726757765623446,0.019099000000000005,0.216453,16.205,0.688,44.335,60.509,0.00199264750822807,-0.00274278184541186,-0.00603574156193203,1.174613,1.117975,0.993933
0.043478515384900565,0.022281999999999996,0.219636,18.763,0.674,43.843,59.66,0.00147196957928831,-0.0020288277396986,-0.00649932353311791,1.17597,1.121007,0.992739
0.049689453113566664,0.025464999999999988,0.222819,21.962,0.646,43.843,58.386,0.00110364046248006,-0.00113965574178068,-0.00670950098528501,1.173587,1.117993,0.991593
0.055900390842232826,0.028648000000000007,0.226002,26.013,0.642,43.35,59.023,0.000328132165115816,8.21577533545452e-05,-0.00723205835821461,1.17367,1.117792,0.990968
0.06211132857089893,0.031831,0.229185,30.49,0.66,42.365,59.023,-0.000842644222113563,0.00136498868971859,-0.00756933146827778,1.172788,1.119243,0.99213
0.06832226629956503,0.03501399999999999,0.232368,34.328,0.66,40.887,59.872,-0.00215803865665975,0.00245934665996842,-0.0074256719449959,1.169865,1.11776,0.993507
0.0745332040282312,0.03819700000000001,0.235551,37.313,0.649,39.902,59.023,-0.00282462087068299,0.00327050636442785,-0.00732821551362867,1.172139,1.119523,0.991839
0.0807441417568973,0.04138,0.238734,40.085,0.628,38.424,58.386,-0.00311663083599507,0.00415790170772493,-0.00771777251952392,1.169118,1.118275,0.990746
0.08695703076980113,0.04456399999999999,0.241918,43.284,0.628,36.454,58.811,-0.00337757636047705,0.00474916888434175,-0.00782119181051689,1.168518,1.119044,0.989328
0.09316796849846729,0.04774700000000001,0.245101,46.269,0.646,33.99,59.66,-0.00425460324453697,0.005410107258201,-0.00867210575544919,1.168062,1.118079,0.988026
0.09937890622713338,0.05093,0.248284,49.041,0.66,32.02,61.783,-0.00493218852125035,0.00598845954755592,-0.010149263171562,1.165608,1.118764,0.987291
0.1055898439557995,0.054112999999999994,0.251467,50.959,0.649,29.064,61.995,-0.00548864775060605,0.00646417931608757,-0.0110902824252444,1.163986,1.118154,0.986665
0.1118007816844656,0.057295999999999986,0.25465,52.665,0.631,26.601,63.482,-0.00603687891948263,0.00675005281014289,-0.0117411878157507,1.164446,1.118094,0.986389
0.1180117194131317,0.06047899999999998,0.257833,54.584,0.631,24.138,64.755,-0.00567644534106894,0.00684487101642737,-0.0121114544861577,1.162511,1.117108,0.984557
0.12422265714179792,0.06366200000000002,0.261016,56.503,0.642,21.675,66.666,-0.00464642949871561,0.00653951416139762,-0.012903891618502,1.162176,1.117051,0.98306
0.13043359487046402,0.06684500000000002,0.264199,58.209,0.66,19.212,69.426,-0.0036742730685455,0.00587899772379477,-0.0142698124325607,1.160873,1.116735,0.983772
0.13664648388336778,0.07002899999999998,0.267383,59.488,0.653,17.734,70.488,-0.00299757447907962,0.00494542725010409,-0.0158013171491332,1.159336,1.116588,0.98355
0.1428574216120339,0.07321199999999997,0.270566,60.128,0.638,16.256,70.7,-0.00171778955309636,0.00341965129833322,-0.0178531946073604,1.159939,1.117385,0.98305
0.14906835934070012,0.07639500000000002,0.273749,61.194,0.624,15.271,70.7,-3.00229244976106e-05,0.00167093853376597,-0.019966145609195,1.156115,1.114375,0.981072
0.15527929706936622,0.07957800000000001,0.276932,62.26,0.635,14.286,72.399,0.000686990969808974,-0.00037756905250779,-0.0235725956565876,1.157084,1.114498,0.980609
0.16149023479803232,0.082761,0.280115,63.753,0.656,14.286,73.46,0.00220380869451533,-0.00305809060038897,-0.0254799504569823,1.153132,1.114235,0.979462
0.16770117252669842,0.08594399999999999,0.283298,64.606,0.653,14.286,74.097,0.00386984078162108,-0.00614179199751231,-0.0256709684469711,1.148376,1.11305,0.978893
0.17391211025536452,0.08912699999999998,0.286481,64.819,0.635,14.779,74.097,0.00454494524060257,-0.00856494348555014,-0.0269635331059959,1.146403,1.115486,0.978377
0.18012304798403064,0.09230999999999998,0.289664,65.458,0.621,15.271,73.248,0.00558829005727053,-0.0112084736609974,-0.0302684713276134,1.142783,1.114303,0.977343
0.18633593699693451,0.095494,0.292848,66.311,0.624,16.256,74.522,0.00773065428710739,-0.0145062692708563,-0.0325404800290469,1.142878,1.114595,0.976044
0.19254687472560061,0.09867699999999999,0.296031,67.591,0.642,16.256,74.947,0.0105354267696953,-0.0173559832972837,-0.0342524415267356,1.140142,1.114822,0.976294
0.1987578124542667,0.10185999999999998,0.299214,68.23,0.649,17.242,75.796,0.0129856728352751,-0.0199982513628258,-0.0360279498840488,1.137046,1.115181,0.977342
0.20496875018293292,0.10504300000000003,0.302397,68.017,0.635,17.734,75.159,0.0154897858464307,-0.0224634632461463,-0.0371634619914208,1.135236,1.115761,0.974139
0.21117968791159905,0.10822600000000002,0.30558,67.804,0.617,18.72,74.31,0.0190766444307724,-0.0252372690966985,-0.0382863054862282,1.132676,1.116142,0.973265
0.21739062564026515,0.11140900000000001,0.308763,68.443,0.617,19.212,74.947,0.0222005740877754,-0.0282258959448406,-0.0392727973812721,1.128991,1.113673,0.972417
0.22360156336893125,0.114592,0.311946,69.083,0.631,19.705,75.371,0.0246979480764098,-0.0310413599828744,-0.0409817648027587,1.128837,1.113595,0.971927
0.22981250109759735,0.11777499999999999,0.315129,69.51,0.646,20.197,76.645,0.0276427217358868,-0.0337634661171861,-0.0423844794563241,1.123906,1.112794,0.97125
0.23602343882626345,0.12095799999999998,0.318312,68.657,0.638,20.69,75.796,0.0308587369304937,-0.0370640229002334,-0.0448120567903896,1.11613,1.111022,0.971377
0.24223632783916735,0.124142,0.321496,67.804,0.617,20.69,75.371,0.0332001048121824,-0.0405271363093638,-0.0475189615163063,1.115893,1.112734,0.970978
0.24844726556783345,0.127325,0.324679,67.377,0.621,20.69,74.947,0.0350617411753365,-0.0438134911374826,-0.0501283244329577,1.115122,1.114035,0.970549
0.2546582032964996,0.13050799999999999,0.327862,67.804,0.631,20.69,75.371,0.0383186568341761,-0.0473950998616837,-0.053699771441144,1.110984,1.114322,0.968663
0.2608691410251657,0.13369099999999998,0.331045,67.804,0.646,21.183,76.645,0.0403531543991747,-0.0497893465664822,-0.0559739686977405,1.106498,1.112472,0.965173
0.2670800787538319,0.13687400000000002,0.334228,67.377,0.642,21.183,75.583,0.0436305403618848,-0.0521280618335546,-0.0586650039886293,1.100751,1.112895,0.962827
0.273291016482498,0.14005700000000001,0.337411,66.525,0.617,20.69,75.371,0.0473970370514998,-0.0544867816354293,-0.0607239395228961,1.095355,1.111021,0.961644
0.2795019542111641,0.14324,0.340594,66.311,0.613,20.69,74.522,0.0515951238704566,-0.0568202969833744,-0.0619381799042543,1.095084,1.111032,0.961272
0.28571484322406787,0.14642399999999997,0.343778,66.311,0.621,20.69,75.371,0.0545830407675486,-0.0590622792655029,-0.0630859193009195,1.091076,1.110811,0.961356
0.2919257809527341,0.14960700000000002,0.346961,66.525,0.638,20.69,76.22,0.0580394422380657,-0.0613558430101758,-0.0641722181097279,1.087057,1.109983,0.96066
0.2981367186814002,0.15279,0.350144,66.098,0.638,20.69,76.008,0.0608289620953476,-0.0635287108082085,-0.0653095330913574,1.084718,1.109099,0.959594
0.3043476564100663,0.155973,0.353327,65.672,0.628,20.69,75.583,0.063885513350235,-0.0653461843996379,-0.0663571440278254,1.08286,1.110004,0.962126
0.3105585941387324,0.159156,0.35651,65.458,0.617,20.69,74.522,0.0681363102083111,-0.0670211201964632,-0.0677349798007516,1.080654,1.109716,0.961305
0.3167695318673985,0.16233899999999998,0.359693,65.672,0.621,20.69,75.583,0.0718880293320811,-0.0689394991054259,-0.069067052871227,1.081049,1.109362,0.959944
0.3229804695960646,0.16552199999999997,0.362876,66.525,0.642,20.197,75.796,0.0761431477608273,-0.0708182923834988,-0.0703754746970062,1.079246,1.109453,0.958506
0.3291914073247308,0.16870500000000002,0.366059,66.951,0.646,20.197,76.433,0.0812829121523504,-0.0727506066812382,-0.0706654428860605,1.076409,1.107905,0.958067
0.3354042963376346,0.171889,0.369243,67.164,0.628,20.197,75.796,0.0858787412419289,-0.0742789598038356,-0.071341112384349,1.075888,1.107342,0.958308
0.3416152340663007,0.17507199999999998,0.372426,67.377,0.613,20.197,74.734,0.089714365164021,-0.0759927884573955,-0.0720068853558939,1.074166,1.106638,0.957679
0.3478261717949669,0.17825500000000002,0.375609,67.804,0.617,20.197,75.371,0.0934913350142571,-0.0775648522884423,-0.0729435781545671,1.07079,1.105787,0.95583
0.354037109523633,0.18143800000000002,0.378792,68.657,0.628,20.197,75.796,0.0972190123783106,-0.0790645360522148,-0.0741454426926357,1.068513,1.106225,0.95402
0.3602480472522991,0.184621,0.381975,69.296,0.631,20.197,76.857,0.100649971172974,-0.0806321174752062,-0.0760530992675181,1.065939,1.106061,0.95267
0.3664589849809652,0.187804,0.385158,69.296,0.617,20.197,75.583,0.103940411446807,-0.082084803022087,-0.0783240645280728,1.066274,1.107663,0.95477
0.3726699227096313,0.190987,0.388341,68.657,0.588,20.197,75.159,0.108455853974561,-0.0836701700874895,-0.0793211499894352,1.062017,1.106296,0.95404
0.37888086043829744,0.19416999999999998,0.391524,68.23,0.581,20.69,75.159,0.112426920271671,-0.0852077673629402,-0.0808142144029,1.061747,1.107256,0.95314
0.3850937494512013,0.197354,0.394708,68.23,0.588,20.197,75.371,0.11665362572707,-0.0865161579815356,-0.0817595752295516,1.061418,1.108126,0.952349
0.3913046871798674,0.200537,0.397891,67.804,0.596,20.197,76.645,0.120435760384102,-0.0884186898571792,-0.0808666410551082,1.058245,1.106285,0.955403
0.3975156249085335,0.20371999999999998,0.401074,66.951,0.592,20.197,75.583,0.124225277852275,-0.0900200316877106,-0.081006432097259,1.059691,1.106642,0.954105
0.4037265626371996,0.20690299999999998,0.404257,66.311,0.571,20.197,75.159,0.126902270250841,-0.0919635516908517,-0.081931598777308,1.056153,1.10649,0.954323
0.40993750036586585,0.21008600000000002,0.40744,66.098,0.563,20.69,74.097,0.128692901674237,-0.0937217957567131,-0.0832888205265836,1.054907,1.10632,0.953686
0.41614843809453195,0.21326900000000001,0.410623,66.098,0.588,20.69,74.947,0.1282250889441,-0.0954621736071813,-0.0867211240655002,1.052865,1.105691,0.952782
0.42235937582319805,0.216452,0.413806,65.672,0.617,20.69,75.796,0.128740067185877,-0.0972113244340323,-0.0871337482237938,1.048139,1.103369,0.951685
0.42857031355186415,0.219635,0.416989,65.032,0.624,20.69,75.159,0.128570496391097,-0.0983860570404776,-0.0883584620956866,1.043312,1.103196,0.951889
0.434783202564768,0.22281900000000002,0.420173,64.179,0.613,20.69,74.31,0.128108934970681,-0.100043080928064,-0.0894206883896975,1.044423,1.104055,0.951598
0.44099414029343414,0.226002,0.423356,63.539,0.613,20.69,73.036,0.127678680366088,-0.101659556470515,-0.0905386241334151,1.041321,1.103708,0.951591
0.44720507802210024,0.229185,0.426539,62.473,0.631,20.69,73.46,0.129399264989162,-0.103236380779197,-0.0906837550184607,1.040184,1.10358,0.952757
0.45341601575076634,0.232368,0.429722,61.834,0.66,20.197,73.248,0.129689054676927,-0.104463241603457,-0.0927035494297269,1.038707,1.103326,0.95193
0.45962695347943244,0.23555099999999998,0.432905,61.194,0.667,20.69,73.248,0.130817716393494,-0.10536584962398,-0.0936894663120506,1.038167,1.103413,0.949756
0.46583789120809854,0.23873399999999997,0.436088,60.554,0.66,20.197,72.399,0.132178601468724,-0.10642097372935,-0.094211211739764,1.038432,1.103403,0.950015
0.47204882893676475,0.24191700000000002,0.439271,60.128,0.66,20.197,70.7,0.133273267132437,-0.107498706382751,-0.0947002779123558,1.03586,1.102862,0.95044
0.47825976666543085,0.2451,0.442454,59.701,0.663,20.197,70.913,0.134088080442438,-0.108599974377818,-0.0955869079519968,1.035138,1.102566,0.9506
0.48447070439409695,0.248283,0.445637,59.275,0.692,20.197,70.488,0.13453318284119,-0.109585952235354,-0.0961500544834614,1.033827,1.102575,0.950641
0.4906835934070008,0.251467,0.448821,58.635,0.706,19.705,70.913,0.136009278102147,-0.110387690440834,-0.0961500801124359,1.033586,1.102672,0.951255
0.4968945311356669,0.25465,0.452004,57.356,0.699,19.705,69.002,0.137055691728829,-0.110593394755566,-0.0959936713512881,1.032129,1.102394,0.951018
0.503105468864333,0.257833,0.455187,55.864,0.688,19.705,67.091,0.137749488422308,-0.110356170060145,-0.0961305124699812,1.032766,1.102132,0.951548
0.5093164065929991,0.26101599999999997,0.45837,54.371,0.688,19.705,66.029,0.138028726692445,-0.109582757255466,-0.096730757815221,1.033003,1.101259,0.952096
0.5155273443216652,0.26419899999999996,0.461553,52.878,0.703,19.212,65.18,0.137597305017653,-0.108629782109602,-0.0977464759904851,1.033156,1.098797,0.951947
0.5217382820503313,0.26738199999999995,0.464736,51.173,0.724,18.72,64.755,0.136184777632947,-0.107395521178649,-0.0987498989838045,1.034552,1.097267,0.953229
0.5279492197789974,0.27056499999999994,0.467919,49.041,0.713,19.212,61.995,0.134165300800925,-0.105942773654739,-0.100119036319049,1.03472,1.095482,0.954692
0.5341621087919013,0.27374899999999996,0.471103,46.055,0.692,18.72,60.085,0.13219160240206,-0.104244518977229,-0.10152118797879,1.035952,1.093187,0.955112
0.5403730465205674,0.27693199999999996,0.474286,43.284,0.688,18.227,57.537,0.130229537849393,-0.102307245273481,-0.102725935661741,1.038318,1.091285,0.956711
0.5465839842492335,0.28011499999999995,0.477469,40.938,0.696,17.734,55.838,0.128621859368108,-0.0997786547201741,-0.10363309654211,1.041732,1.091475,0.95864
0.5527949219778997,0.283298,0.480652,38.38,0.713,16.749,55.626,0.127718260215001,-0.0972796030627405,-0.105243921414432,1.04391,1.091441,0.960154
0.5590058597065658,0.286481,0.483835,34.755,0.713,16.256,55.626,0.127671397600803,-0.0948577617026153,-0.10740446032718,1.045996,1.092978,0.961625
0.5652167974352319,0.289664,0.487018,30.49,0.692,15.271,58.174,0.126552329772344,-0.0923834243493356,-0.109492866658757,1.04688,1.094266,0.963468
0.571427735163898,0.29284699999999997,0.490201,26.439,0.688,14.779,63.906,0.125947662786535,-0.0907987980148134,-0.111600794719957,1.047251,1.093404,0.96498
0.5776386728925641,0.29602999999999996,0.493384,23.667,0.688,13.793,66.029,0.12628188613581,-0.0898498197220901,-0.113124254551439,1.047676,1.092684,0.96554
0.583851561905468,0.299214,0.496568,21.322,0.71,13.793,65.817,0.127731601759984,-0.089416270187167,-0.114424429354686,1.047003,1.093938,0.967147
0.5900624996341342,0.30239699999999997,0.499751,18.763,0.713,14.779,65.817,0.130024122521436,-0.0889731599602509,-0.115640654133225,1.045221,1.096006,0.967308
0.5962734373628003,0.30557999999999996,0.502934,15.991,0.699,16.256,64.968,0.13229518226949,-0.0885639131766007,-0.115897563423178,1.045338,1.096826,0.967441
0.6024843750914665,0.308763,0.506117,14.072,0.681,19.212,63.482,0.13415378365297,-0.0882044471828158,-0.116130418345151,1.047886,1.096783,0.966258
0.6086953128201325,0.31194599999999995,0.5093,13.006,0.685,22.66,64.118,0.135472158189566,-0.0872578072206947,-0.116752906842135,1.049153,1.098252,0.967544
0.6149062505487987,0.315129,0.512483,12.58,0.706,26.601,63.694,0.135460937522256,-0.0864250805541624,-0.117327646354727,1.049074,1.098637,0.968597
0.6211171882774646,0.31831199999999993,0.515666,11.514,0.713,30.542,64.331,0.135651336850018,-0.086677835680057,-0.117914872687435,1.050103,1.100006,0.971859
0.6273281260061309,0.321495,0.518849,9.808,0.696,34.976,63.482,0.136204596510539,-0.0871192433197182,-0.118841524233896,1.048075,1.099211,0.972791
0.6335390637347971,0.324678,0.522032,8.102,0.678,38.424,62.845,0.137243786049523,-0.0874511300897699,-0.119591015821966,1.048926,1.101163,0.973229
0.6397519527477008,0.327862,0.525216,6.823,0.678,41.872,63.269,0.138669886002373,-0.0883657823649006,-0.119970556283848,1.051807,1.101862,0.974257
0.6459628904763668,0.3310449999999999,0.528399,6.183,0.699,45.321,63.906,0.14008264985172,-0.0891280646215954,-0.119825799088563,1.054706,1.10486,0.975136
0.652173828205033,0.33422799999999997,0.531582,5.544,0.71,47.784,65.392,0.141656949303071,-0.0897342898939292,-0.119495174178464,1.055157,1.105491,0.974386
0.6583847659336993,0.337411,0.534765,4.051,0.703,50.247,64.543,0.143347682602515,-0.090349247270776,-0.119418720114399,1.057244,1.105469,0.974507
0.6645957036623653,0.34059399999999995,0.537948,2.559,0.685,52.217,64.755,0.144791450042935,-0.090645412960017,-0.11895854449508,1.059709,1.105803,0.97475
0.6708066413910315,0.343777,0.541131,1.706,0.678,53.695,64.331,0.147173469758159,-0.0901044813832592,-0.118589364105812,1.061775,1.106007,0.975215
0.6770175791196975,0.34695999999999994,0.544314,1.493,0.688,55.665,64.755,0.150577286237228,-0.0895642247824398,-0.118095062416231,1.064835,1.107314,0.976655
0.6832304681326015,0.350144,0.547498,1.279,0.699,56.651,65.817,0.154471392427121,-0.0891290842946139,-0.116704516849272,1.069278,1.109467,0.977463
0.6894414058612675,0.35332699999999995,0.550681,0.426,0.692,58.128,64.755,0.156360877475104,-0.0886270606941931,-0.113810022525814,1.072517,1.111,0.976912
0.6956523435899337,0.35651,0.553864,-0.64,0.671,59.114,64.118,0.156253069182832,-0.0883193758128849,-0.109736294063189,1.077874,1.111711,0.979194
0.7018632813185997,0.35969299999999993,0.557047,-1.066,0.663,60.099,62.845,0.152255409657933,-0.0870027044961674,-0.107688824404416,1.082013,1.112048,0.981262
0.7080742190472659,0.362876,0.56023,-0.64,0.674,60.591,63.482,0.144351555625905,-0.085477813399089,-0.100900118848026,1.087204,1.114674,0.982316
0.7142851567759321,0.366059,0.563413,0.0,0.692,61.084,63.906,0.138154405701972,-0.0839309241606363,-0.0977046719129928,1.090882,1.11425,0.985815
0.7204960945045981,0.36924199999999996,0.566596,0.213,0.692,61.084,64.118,0.131611453787969,-0.0825109593839475,-0.0952915538255609,1.096911,1.114285,0.98931
0.7267070322332643,0.372425,0.569779,-0.213,0.681,61.084,63.694,0.124788049098092,-0.0808091888575404,-0.0917092977838722,1.100507,1.113738,0.991371
0.7329199212461681,0.37560899999999997,0.572963,-0.213,0.667,61.577,62.845,0.116349453933177,-0.0772173886086753,-0.0864442928753504,1.10869,1.115536,0.992438
0.7391308589748343,0.378792,0.576146,0.0,0.678,61.577,64.118,0.109819118866945,-0.0738238767157935,-0.0792708984560823,1.115097,1.119605,0.992681
0.7453417967035003,0.38197499999999995,0.579329,0.64,0.699,61.084,64.118,0.10218712477734,-0.0713833713180297,-0.0710349817205679,1.120178,1.120031,0.995278
0.7515527344321665,0.385158,0.582512,0.426,0.71,61.084,64.755,0.0935312405565645,-0.069284619098446,-0.063834532323296,1.128058,1.120983,0.99461
0.7577636721608325,0.38834099999999994,0.585695,0.213,0.703,61.084,64.331,0.0841069482657977,-0.0663585133008078,-0.0566794213334846,1.13504,1.124251,0.992985
0.7639746098894987,0.391524,0.588878,-0.213,0.685,61.084,63.057,0.074734482625497,-0.0628016124845557,-0.0495134118288414,1.140553,1.124546,0.991272
0.7701855476181647,0.3947069999999999,0.592061,0.213,0.685,61.084,63.694,0.065018114944107,-0.0594298078224069,-0.0461474713732573,1.145443,1.127534,0.989006
0.7763964853468309,0.39788999999999997,0.595244,1.493,0.706,61.084,64.118,0.0587719740574158,-0.0555865928248106,-0.0422146416002034,1.147313,1.126101,0.986829
0.7826093743597347,0.40107399999999993,0.598428,2.772,0.71,61.084,65.18,0.0524633366599706,-0.0518797338038754,-0.0385580799235471,1.151674,1.127397,0.982902
0.7888203120884009,0.404257,0.601611,3.625,0.696,61.084,64.118,0.0435751698882634,-0.0496343469511869,-0.03360531353254,1.152676,1.12723,0.981732
0.7950312498170671,0.40744,0.604794,3.838,0.667,61.577,63.694,0.0369558515214942,-0.0447610357997383,-0.0287837304944776,1.156831,1.127838,0.982539
0.8012421875457331,0.41062299999999996,0.607977,4.051,0.663,62.069,63.482,0.0297509734719126,-0.0417826367018847,-0.0248418619843037,1.159603,1.125648,0.984031
0.8074531252743993,0.413806,0.61116,4.478,0.674,62.069,63.906,0.0258600086493404,-0.0367353297009886,-0.0233207467635879,1.16529,1.125573,0.983416
0.8136640630030654,0.41698899999999994,0.614343,4.264,0.688,62.069,64.755,0.0234180049739941,-0.0313482919751193,-0.022031790764082,1.165526,1.123941,0.985006
0.8198750007317316,0.420172,0.617526,2.772,0.685,62.562,63.906,0.0195349028932096,-0.0264985722029566,-0.01889498845834,1.16876,1.124494,0.984159
0.8260859384603976,0.4233549999999999,0.620709,1.279,0.667,62.562,63.482,0.014384538021483,-0.0231281825936207,-0.0163002421657107,1.172772,1.123604,0.985861
0.8322968761890638,0.426538,0.623892,0.213,0.663,62.562,62.632,0.0103069191380843,-0.0203127349308948,-0.0138320295106387,1.174349,1.121366,0.984583
0.8385097652019675,0.42972199999999994,0.627076,0.213,0.678,62.562,63.482,0.00696857940152347,-0.0158822496286519,-0.0117198729917006,1.176318,1.119089,0.985297
0.8447207029306337,0.432905,0.630259,0.426,0.699,62.562,64.331,0.00400176954549699,-0.0122820165259325,-0.00905501150931717,1.178312,1.117187,0.983904
0.8509316406592997,0.4360879999999999,0.633442,0.64,0.696,62.562,63.694,0.00251008910027662,-0.00943409297180186,-0.00570198603570043,1.182582,1.119774,0.983441
0.8571425783879659,0.43927099999999997,0.636625,0.64,0.678,62.562,63.269,8.80178286785573e-06,-0.00633934002973744,-0.00345076705123316,1.181376,1.11721,0.983509
0.8633535161166321,0.442454,0.639808,1.493,0.671,62.069,62.208,-0.00170010892283621,-0.00349679614212601,-0.000513069477775198,1.183727,1.116822,0.984035
0.8695644538452981,0.44563699999999995,0.642991,2.559,0.671,62.069,63.057,-0.00341886607471791,-0.00113511073793563,0.00208710638210889,1.186508,1.116141,0.984181
0.8757753915739643,0.44882,0.646174,3.838,0.692,61.577,63.269,-0.00408002032361541,0.00138942991254909,0.00343329864822927,1.188676,1.115194,0.983229
0.8819863293026303,0.45200299999999993,0.649357,4.478,0.699,61.084,63.694,-0.00589846978118524,0.00357169419244793,0.00373482219644758,1.19089,1.115898,0.983332
0.8881992183155344,0.455187,0.652541,4.478,0.681,60.591,63.057,-0.0071794649903067,0.00494268166965155,0.00567661241127397,1.190514,1.113943,0.982554
0.8944101560442004,0.45836999999999994,0.655724,4.478,0.667,60.099,61.783,-0.00846616708896483,0.00629829253402433,0.00745559355419755,1.191968,1.114685,0.981893
0.9006210937728666,0.461553,0.658907,4.264,0.671,59.606,62.208,-0.00978837498123472,0.00775676218187359,0.00837537895115677,1.192084,1.114905,0.979956
0.9068320315015326,0.4647359999999999,0.66209,4.904,0.692,58.621,62.632,-0.0107591946976745,0.00852356095605761,0.00866436972573673,1.192327,1.114782,0.979572
0.9130429692301988,0.467919,0.665273,5.117,0.696,57.636,63.482,-0.0118833013574862,0.00883996337273062,0.00881030589672687,1.193887,1.116339,0.980386
0.919253906958865,0.471102,0.668456,4.904,0.681,56.651,62.208,-0.0130606247237814,0.00922643158563346,0.00855738179161658,1.192835,1.114005,0.981233
0.925464844687531,0.47428499999999996,0.671639,4.264,0.667,56.158,61.571,-0.0130054348654686,0.00925570069793925,0.00855094027474566,1.195179,1.113076,0.982459
0.9316777337004347,0.4774689999999999,0.674823,4.264,0.663,54.68,61.358,-0.0123018257348913,0.00890714457092413,0.00814214506990451,1.197166,1.113262,0.983252
0.9378886714291009,0.48065199999999997,0.678006,4.691,0.678,53.695,61.571,-0.0117291727855225,0.00829073239970859,0.00768414244128792,1.197,1.114658,0.983492
0.9440996091577671,0.483835,0.681189,5.33,0.688,52.71,62.632,-0.011125354968788,0.00760092982007351,0.00740663393466361,1.197463,1.115793,0.98461
0.9503105468864331,0.48701799999999995,0.684372,5.117,0.681,51.724,61.146,-0.00971733995391361,0.00701477437702827,0.00763287082528965,1.196802,1.115687,0.984459
0.9565214846150993,0.490201,0.687555,4.691,0.649,51.232,60.934,-0.00873147256741644,0.00635723478267551,0.00754799918599866,1.197154,1.116182,0.985117
0.9627324223437653,0.49338399999999993,0.690738,4.478,0.56,50.247,60.085,-0.00762489759310058,0.00550027725883449,0.00738404616842234,1.19939,1.119816,0.986339
0.9689433600724315,0.496567,0.693921,4.904,0.488,49.754,60.509,-0.00657773508291085,0.00472036544743207,0.00700409861321421,1.196905,1.119545,0.986861
0.9751542978010976,0.4997499999999999,0.697104,5.117,0.499,48.769,61.358,-0.0051644054443316,0.00390594492646066,0.00619186050184892,1.197862,1.120141,0.986289
0.9813671868140016,0.502934,0.700288,4.904,0.578,48.276,60.721,-0.00388651987141664,0.00310084902148215,0.00519534173591144,1.197052,1.121684,0.987384
0.9875781245426676,0.5061169999999999,0.703471,4.051,0.703,47.784,60.297,-0.00267644604517354,0.0022492642348143,0.00404418328992237,1.196537,1.122431,0.988231
0.9937890622713338,0.5093,0.706654,3.412,0.881,47.291,59.235,-0.00143578767556688,0.00123443319193834,0.00305893893938106,1.19472,1.121653,0.988833
1.0,0.512483,0.709837,3.625,1.024,47.291,60.085,-0.000443493253436889,0.000329053526161467,0.00136558472007855,1.193594,1.123514,0.991462
