cardiac cycle [%],t abs [s],t [s],ECG [mV],AoP [mmHg],LVP [mmHg],LAD Flow [ml/s],rad strain,circ strain,long strain,tissue vol ischemic [ml],tissue vol border [ml],tissue vol remote [ml]
0.0,0.0,0.308344,1.26,41.977,11.938,3.431,0.0,0.0,0.0,0.812814,0.854161,0.870281
0.009174148691558106,0.0067030000000000145,0.315047,0.521,41.977,12.748,3.431,0.000508875896395451,-0.00134376874131378,0.000821931051965173,0.813372,0.852818,0.869217
0.018348297383116136,0.013405999999999973,0.32175,0.506,41.977,14.368,3.921,0.0012955480158902,-0.00308042005448881,0.00273755854508912,0.813454,0.851527,0.866187
0.027522446074674245,0.020108999999999988,0.328453,0.524,41.775,16.798,3.431,0.00194421947554196,-0.00441620804355399,0.0050558379164905,0.813474,0.850611,0.86148
0.03669659476623235,0.026812000000000002,0.335156,0.503,41.977,20.443,2.941,0.00238839246624467,-0.00430607611273332,0.00810810202768522,0.813333,0.848225,0.860022
0.04587074345779046,0.03351500000000002,0.341859,0.506,42.582,24.898,2.451,0.000831445218985428,-0.00372152935235921,0.0109805249196782,0.812263,0.849115,0.860113
0.05504489214934849,0.040217999999999976,0.348562,0.453,42.582,28.948,1.47,-0.0019235832816362,-0.00121966153742003,0.014955459579267,0.815641,0.849433,0.858492
0.06422040950399653,0.04692200000000002,0.355266,0.474,43.592,32.998,0.49,-0.00401717837664783,0.00152694117079127,0.0187839933017285,0.817313,0.84848,0.85835
0.07339455819555456,0.05362499999999998,0.361969,0.453,45.206,37.655,-0.49,-0.00563592309820342,0.00481078938005147,0.0226662437251599,0.818688,0.850051,0.85782
0.08256870688711267,0.06032799999999999,0.368672,0.46,47.224,41.503,-0.49,-0.00721071056063076,0.00807058632023242,0.0248527259068007,0.81936,0.850844,0.857637
0.09174285557867078,0.06703100000000001,0.375375,0.471,49.848,45.148,1.47,-0.00815288976652732,0.00868290175876314,0.0268208971130857,0.820754,0.850243,0.857182
0.1009170042702288,0.07373399999999997,0.382078,0.446,52.471,47.983,2.451,-0.00911995044415336,0.00850127535364664,0.0284471646486906,0.820739,0.849583,0.857047
0.11009115296178691,0.08043699999999998,0.388781,0.471,54.893,50.413,3.431,-0.0101585846569852,0.00793160956215498,0.0297384360919349,0.820635,0.849888,0.85587
0.11926530165334501,0.08714,0.395484,0.449,56.911,52.438,3.921,-0.0109874242850385,0.006853046926725,0.0312672380131778,0.820244,0.852166,0.856985
0.12843945034490312,0.09384300000000001,0.402187,0.453,58.526,53.855,4.902,-0.0112734549746477,0.0052937756554118,0.0330043264316231,0.819087,0.850872,0.85672
0.1376149676995511,0.100547,0.408891,0.46,59.939,55.07,4.902,-0.0108412606975604,0.00358054982029945,0.0340543163924708,0.818815,0.852137,0.856339
0.1467891163911092,0.10725000000000001,0.415594,0.431,61.15,56.083,4.902,-0.0104437222762326,0.00165067100485981,0.034596149394464,0.818154,0.853175,0.856987
0.15596326508266722,0.11395299999999997,0.422297,0.46,61.957,56.893,4.902,-0.00975728448396779,-0.000429685331323553,0.0350446418878989,0.818713,0.854003,0.856768
0.16513741377422533,0.12065599999999999,0.429,0.431,62.764,57.5,5.392,-0.00865477109761051,-0.00245884313568981,0.0353888334577783,0.818128,0.854108,0.857966
0.17431156246578344,0.127359,0.435703,0.442,63.168,57.905,5.392,-0.00788426260507667,-0.00422389750345055,0.035631278584914,0.815703,0.854161,0.85778
0.18348571115734155,0.13406200000000001,0.442406,0.446,63.571,58.31,5.392,-0.0067111776413952,-0.00660381572540718,0.0351378651571563,0.815627,0.854655,0.85733
0.19265985984889958,0.14076499999999997,0.449109,0.421,63.975,58.715,4.902,-0.00617009302343604,-0.0091640991577597,0.0350290282613496,0.813567,0.855575,0.857783
0.2018340085404577,0.147468,0.455812,0.446,64.379,58.715,4.902,-0.00492456451713225,-0.0117612347842291,0.0351599371646972,0.814316,0.854747,0.85677
0.21100952589510563,0.15417199999999998,0.462516,0.417,64.379,58.918,4.902,-0.00362352529564905,-0.0140439788393614,0.0345234696450006,0.813564,0.854743,0.856697
0.22018367458666374,0.160875,0.469219,0.421,64.58,58.715,4.902,-0.00217197944106629,-0.0167293613065336,0.0341198011746608,0.813238,0.856268,0.856569
0.22935782327822185,0.167578,0.475922,0.421,64.782,58.715,4.902,-0.00117906024044364,-0.0196241634018846,0.0336068473937653,0.810935,0.85594,0.856608
0.23853197196977996,0.17428100000000002,0.482625,0.396,64.782,58.513,4.902,9.62317034406612e-05,-0.0227110339578144,0.0327641346521903,0.811611,0.856704,0.857328
0.247706120661338,0.18098399999999998,0.489328,0.417,64.782,58.513,4.902,0.000734409170962644,-0.0252786891890804,0.0318790818012358,0.810972,0.856641,0.85788
0.2568802693528961,0.187687,0.496031,0.385,64.782,58.31,4.902,0.00132064956471301,-0.0277967012769652,0.0317060760022234,0.809624,0.856758,0.858092
0.2660544180444542,0.19439,0.502734,0.392,64.58,57.905,4.412,0.00135865006001446,-0.0296423031107651,0.0318684911742801,0.809021,0.856797,0.858217
0.27522993539910207,0.20109399999999994,0.509438,0.385,64.379,57.905,4.902,0.00171254078275732,-0.0314891480913127,0.0321916394250956,0.809135,0.85757,0.859062
0.2844040840906602,0.20779699999999995,0.516141,0.342,64.177,57.703,4.412,0.00290415083537749,-0.0330661436033422,0.0325760614583657,0.808373,0.857944,0.858864
0.2935782327822183,0.21449999999999997,0.522844,0.371,64.177,57.298,4.412,0.00508681019776666,-0.0338415255524699,0.0332200016676796,0.808063,0.858667,0.859561
0.3027523814737764,0.22120299999999998,0.529547,0.367,63.975,57.298,4.412,0.00624166491388766,-0.0342788804131818,0.0335306249044373,0.806874,0.858556,0.859371
0.3119265301653345,0.227906,0.53625,0.424,63.571,56.69,4.412,0.00726344526093881,-0.035418869452326,0.0333055537679476,0.807726,0.85797,0.85881
0.32110067885689264,0.234609,0.542953,0.492,63.369,56.488,4.412,0.00822113816602332,-0.0366304343312309,0.0337000423973003,0.805697,0.857623,0.858997
0.3302748275484507,0.24131200000000003,0.549656,0.517,63.168,56.083,4.412,0.00987428595967786,-0.0384549138494391,0.0337385637334363,0.805606,0.857619,0.859616
0.33944897624000886,0.24801500000000004,0.556359,0.592,62.764,55.678,4.412,0.0101062118633643,-0.0395650736452573,0.0336691561638053,0.806558,0.857949,0.859426
0.3486231249315668,0.25471799999999994,0.563062,0.603,62.36,55.273,4.412,0.0116807469180491,-0.0406659639047781,0.033454733579433,0.805261,0.857753,0.860732
0.35779864228621483,0.261422,0.569766,0.653,62.159,54.665,4.412,0.0127257237743529,-0.0414293697774856,0.033486972966299,0.802787,0.857751,0.860517
0.3669727909777729,0.268125,0.576469,0.738,61.553,54.26,4.412,0.0134991216253932,-0.0418167762463543,0.0332683363532592,0.805294,0.857296,0.860076
0.37614693966933105,0.274828,0.583172,0.76,61.351,53.653,4.412,0.0134086430901979,-0.0415744567369644,0.0330278363849502,0.805406,0.858162,0.860499
0.38532108836088913,0.28153100000000003,0.589875,0.806,60.948,53.248,3.921,0.0139876227823497,-0.0414651786229858,0.0330630577159613,0.805216,0.85717,0.860676
0.39449523705244727,0.28823400000000005,0.596578,0.781,60.342,52.64,3.921,0.0137892369457351,-0.0411371180422033,0.0330163945258514,0.802695,0.85771,0.860474
0.40366938574400524,0.29493699999999995,0.603281,0.796,59.939,52.033,4.412,0.0133100673946755,-0.0406670171055395,0.0328923324447993,0.80288,0.858508,0.860828
0.4128435344355633,0.30163999999999996,0.609984,0.799,59.333,51.425,3.921,0.0127069021652033,-0.0400237834275146,0.0327338614884386,0.802743,0.858204,0.860759
0.4220176831271214,0.308343,0.616687,0.774,58.728,50.818,3.921,0.0120105595154488,-0.0393314277390928,0.0326936679860746,0.802557,0.85792,0.860651
0.43119320048176946,0.315047,0.623391,0.796,57.92,50.008,3.921,0.012192288040153,-0.0384473182821159,0.0324471434428744,0.802297,0.85679,0.860438
0.4403673491733276,0.32175000000000004,0.630094,0.771,57.113,48.793,3.431,0.0122055744978471,-0.0375047910198013,0.0321946574915044,0.802272,0.856312,0.860636
0.4495414978648855,0.32845299999999994,0.636797,0.781,56.104,47.78,3.431,0.0127665815433699,-0.0371201225125923,0.0319189091640727,0.804146,0.856052,0.861461
0.45871564655644365,0.33515599999999995,0.6435,0.785,54.893,46.363,3.431,0.0132475311845431,-0.0364689827099513,0.0313393175509469,0.804055,0.85536,0.861928
0.4678897952480017,0.34185899999999997,0.650203,0.746,53.077,44.54,3.431,0.0141061889126554,-0.0363307707153057,0.0305172872245909,0.804436,0.855393,0.862303
0.47706394393955986,0.348562,0.656906,0.788,51.059,42.11,2.941,0.0155006173965895,-0.0373703241929259,0.0291856009290955,0.804484,0.85465,0.863928
0.48623809263111795,0.355265,0.663609,0.742,49.242,39.68,1.961,0.0169183558362792,-0.0381763312547266,0.028004916724937,0.805048,0.854904,0.86434
0.4954122413226761,0.361968,0.670312,0.771,47.83,37.048,1.47,0.0191419253785863,-0.0387634101986982,0.0268773906485455,0.80551,0.854944,0.865186
0.504587758677324,0.36867199999999994,0.677016,0.76,50.453,33.605,1.47,0.0226279236070645,-0.0387751948109296,0.0259059010963201,0.804877,0.856511,0.866707
0.513761907368882,0.37537499999999996,0.683719,0.742,54.691,30.163,3.431,0.0266821451167848,-0.042055705449448,0.0246653351308973,0.806503,0.856743,0.867574
0.5229360560604401,0.382078,0.690422,0.767,54.49,27.328,9.314,0.0304959499841535,-0.0457781923802072,0.0223256740199597,0.804935,0.854685,0.866597
0.5321102047519982,0.388781,0.697125,0.735,54.086,24.493,10.294,0.034816404265263,-0.0496768533187943,0.0199237028112504,0.80361,0.854629,0.867163
0.5412843534435564,0.395484,0.703828,0.746,53.884,22.265,7.843,0.0387578953329216,-0.0513569614181265,0.0176245212861889,0.802168,0.854549,0.867675
0.5504585021351145,0.402187,0.710531,0.746,54.086,20.24,6.863,0.0444741363670548,-0.0555668547446581,0.0147121484801395,0.801557,0.85505,0.868844
0.5596326508266726,0.40889000000000003,0.717234,0.731,54.288,18.013,6.863,0.048996296346283,-0.0615450553466922,0.0116092589709191,0.798745,0.855208,0.870576
0.5688081681813205,0.41559399999999996,0.723938,0.749,54.288,16.393,7.353,0.0529052035384768,-0.0649966513913363,0.00869129285335987,0.796744,0.855377,0.871736
0.5779823168728786,0.422297,0.730641,0.721,54.288,14.57,6.863,0.0574915137504708,-0.0703738835241053,0.00403506663212755,0.795736,0.855653,0.873456
0.5871564655644367,0.429,0.737344,0.742,53.884,12.95,6.863,0.0617324973489435,-0.0737019799299738,-0.00073730576879477,0.794721,0.856246,0.876217
0.5963306142559948,0.435703,0.744047,0.728,53.481,11.533,6.372,0.0664044374585877,-0.0748782496135879,-0.00446856718565119,0.792617,0.855909,0.878457
0.6055047629475528,0.442406,0.75075,0.728,53.481,10.52,6.372,0.0722798113449681,-0.0783036196600429,-0.00919757485660065,0.791093,0.856179,0.880562
0.614678911639111,0.44910900000000004,0.757453,0.746,53.077,9.305,5.882,0.0796827995403815,-0.0817876730851646,-0.0122669476676586,0.789743,0.85602,0.881937
0.623853060330669,0.45581199999999994,0.764156,0.71,52.471,8.495,5.392,0.0840602927648118,-0.0842125003247645,-0.0153526230993043,0.788161,0.853564,0.881954
0.6330272090222271,0.46251499999999995,0.770859,0.731,52.27,7.888,4.902,0.0878795423789526,-0.0859644216522697,-0.0182790271858813,0.787199,0.852371,0.88174
0.6422013577137852,0.46921799999999997,0.777562,0.717,52.068,7.28,4.902,0.0888332457563944,-0.0880984826203825,-0.019854236258547,0.785406,0.852818,0.882158
0.6513768750684332,0.475922,0.784266,0.706,51.866,6.875,4.412,0.0911181581134384,-0.0901782251630672,-0.0208333994060874,0.784402,0.852435,0.881883
0.6605510237599913,0.482625,0.790969,0.735,51.664,6.673,4.902,0.0919976009443049,-0.0914237217180471,-0.0215801160654533,0.784314,0.854292,0.881832
0.6697251724515494,0.48932800000000004,0.797672,0.703,51.261,6.47,4.902,0.0892527782657225,-0.0907604764168339,-0.0208545881660282,0.784921,0.854928,0.880032
0.6788993211431074,0.49603099999999994,0.804375,0.728,51.059,6.268,4.902,0.0841722530812496,-0.0884333371769165,-0.0198943651133353,0.784591,0.856923,0.879276
0.6880734698346656,0.502734,0.811078,0.713,50.857,6.065,4.412,0.0775367325107711,-0.0840894375421962,-0.0186018189154712,0.786316,0.857239,0.875976
0.6972476185262236,0.509437,0.817781,0.703,50.655,6.065,4.412,0.0685080942239161,-0.0783912935615188,-0.0176804112160417,0.788544,0.859064,0.875557
0.7064217672177818,0.51614,0.824484,0.721,50.251,6.065,4.412,0.0604268808094579,-0.0709577427431757,-0.0160616601975163,0.791805,0.861159,0.876251
0.7155959159093399,0.5228430000000001,0.831187,0.696,50.05,6.065,4.902,0.0522627533876936,-0.0619567904339867,-0.0159523249182789,0.794558,0.862609,0.876933
0.724771433263988,0.5295470000000001,0.837891,0.717,49.848,6.268,4.902,0.0471271038807978,-0.0541480980958599,-0.0164285250670386,0.79804,0.863117,0.877645
0.7339455819555458,0.53625,0.844594,0.703,49.444,6.47,5.392,0.0419620418108086,-0.0468437217378841,-0.0166440381757579,0.80175,0.863294,0.877413
0.743119730647104,0.542953,0.851297,0.703,49.041,6.47,4.902,0.0368901840224581,-0.0401818378221337,-0.0156145319261306,0.804113,0.862985,0.878491
0.7522938793386621,0.549656,0.858,0.721,48.637,6.673,4.902,0.0325606141396888,-0.0349422602384042,-0.0151618445706292,0.806753,0.863367,0.878017
0.7614680280302202,0.556359,0.864703,0.685,48.233,6.875,4.902,0.0282701031373487,-0.0308351804903814,-0.0143654432053803,0.807055,0.864577,0.878691
0.7706421767217783,0.5630620000000001,0.871406,0.71,47.83,7.078,4.902,0.0260046390932592,-0.0283560586941384,-0.0139691911917563,0.807604,0.864494,0.879276
0.7798163254133365,0.5697650000000001,0.878109,0.699,47.628,7.078,4.412,0.0230487839010422,-0.0264596754610098,-0.0137041929541814,0.807563,0.864645,0.879061
0.7889904741048945,0.5764680000000001,0.884812,0.706,47.224,7.28,4.902,0.020563050525348,-0.0250246630447989,-0.0133244821631311,0.807482,0.862695,0.878476
0.7981659914595424,0.583172,0.891516,0.785,47.022,7.28,4.412,0.0189987676247558,-0.0244640556188625,-0.0134598014325652,0.806887,0.862063,0.878823
0.8073401401511006,0.589875,0.898219,0.792,46.619,7.28,4.412,0.0176598689006092,-0.0243436314630159,-0.0134492972316669,0.806502,0.861468,0.879045
0.8165142888426586,0.596578,0.904922,0.774,46.417,7.28,4.412,0.0164176833847342,-0.0243818453332208,-0.0131286904121826,0.804738,0.860918,0.879358
0.8256884375342167,0.6032810000000001,0.911625,0.721,46.215,7.483,4.412,0.0159333152951897,-0.0247223203612535,-0.0130695376456923,0.805018,0.861326,0.880018
0.8348625862257748,0.6099840000000001,0.918328,0.674,45.812,7.483,4.412,0.0152832762091213,-0.0250523877448926,-0.0131132905580063,0.804208,0.861157,0.880545
0.8440367349173329,0.6166870000000001,0.925031,0.667,45.61,7.483,4.412,0.0147560092755564,-0.0250669657994589,-0.0127046182050518,0.804298,0.860765,0.880918
0.8532108836088909,0.62339,0.931734,0.617,45.408,7.685,4.412,0.0144009132951432,-0.0252508113485467,-0.0124342181590262,0.804902,0.860457,0.880179
0.8623850323004489,0.630093,0.938437,0.653,45.408,7.685,4.412,0.0134742173619382,-0.0248092496146738,-0.0117326855460627,0.803699,0.860491,0.879243
0.871560549655097,0.6367970000000001,0.945141,0.646,45.206,7.888,4.412,0.0125548842213655,-0.0238080785970236,-0.0107010688837126,0.802985,0.859047,0.878359
0.8807346983466552,0.6435000000000001,0.951844,0.642,45.004,8.09,3.921,0.0108789965687935,-0.0221288652545788,-0.00915928560784471,0.803248,0.858606,0.878149
0.8899088470382133,0.6502030000000001,0.958547,0.663,45.004,8.495,3.921,0.00897047914469931,-0.0200765324794121,-0.00790743276482347,0.804832,0.85855,0.876055
0.8990829957297714,0.6569060000000001,0.96525,0.628,44.802,8.9,3.921,0.00769278941322434,-0.0177407815649974,-0.00628136478700241,0.803998,0.857607,0.875074
0.9082571444213293,0.663609,0.971953,0.656,44.601,9.305,3.431,0.00645951860379306,-0.0152552158438262,-0.00491820839327884,0.806218,0.856389,0.873423
0.9174312931128874,0.670312,0.978656,0.649,44.399,9.71,3.921,0.00525246928606917,-0.0124063666038407,-0.00378433113620354,0.807459,0.856275,0.872292
0.9266054418044455,0.677015,0.985359,0.649,44.197,10.115,3.921,0.00406962176948017,-0.00940642378176479,-0.00251283500207901,0.807975,0.855785,0.870863
0.9357795904960037,0.683718,0.992062,0.649,43.995,10.318,3.431,0.00259504552912731,-0.00694697634409276,-0.00155545539756879,0.808951,0.856427,0.870816
0.9449551078506516,0.6904220000000001,0.998766,0.631,43.793,10.723,3.431,0.0015823777827269,-0.00471154986742327,-0.00100122597574204,0.811136,0.856093,0.870408
0.9541292565422096,0.697125,1.005469,0.66,43.592,10.723,3.431,0.000586875339063605,-0.00202846394617891,-0.000820315042219875,0.811983,0.856322,0.869629
0.9633034052337679,0.7038280000000001,1.012172,0.563,43.39,10.925,3.431,9.14195382056208e-06,-0.000202294825776538,-0.000563987582611518,0.812755,0.856146,0.869506
0.9724775539253259,0.710531,1.018875,0.363,43.188,10.925,3.431,-0.000593134244372618,0.000843926205340111,-0.000165682775873531,0.813734,0.855226,0.86948
0.9816517026168841,0.7172340000000001,1.025578,0.674,42.784,11.128,3.431,-0.000834674549415938,0.00166068928141829,-0.000206228192370436,0.811516,0.854811,0.87047
0.990825851308442,0.723937,1.032281,1.417,42.381,11.128,3.431,-0.000876977986846722,0.00141507947221019,1.65944702057295e-05,0.81166,0.853491,0.870833
1.0,0.73064,1.038984,1.785,42.179,11.735,3.431,-0.000875038270184253,0.000902620565400002,-0.000116101624604611,0.811044,0.854763,0.872098
