cardiac cycle [%],t abs [s],t [s],LVP [mmHg],ECG [mV],LAD Flow [ml/s],AoP [mmHg],AoP/Flow,Pao/PLV,rad strain,circ strain,long strain,tissue vol ischemic [ml],tissue vol border [ml],tissue vol remote [ml]
0.0,0.0,0.744047,25.8,0.913,3.449,45.01,13.050159466512033,1.7445736434108525,0.0,0.0,0.0,0.962495,0.906185,0.852327
0.008928404928404987,0.0067030000000000145,0.75075,27.506,0.578,2.956,45.01,15.226657645466847,1.6363702464916745,-0.00171666323547426,-0.00081838610159742,-0.00302955606427953,0.963349,0.906327,0.850916
0.017856809856809975,0.013406000000000029,0.757453,30.065,0.599,3.449,44.373,12.86546825166715,1.4759022118742722,-0.0028117003909899,-0.00149094163459306,-0.0043212823636321,0.959812,0.905155,0.849732
0.02678521478521481,0.020108999999999932,0.764156,33.263,0.61,3.449,43.736,12.680777036822267,1.314854342663019,-0.00302312080040853,-0.00208402137162674,-0.00386015551135696,0.95801,0.901485,0.849488
0.0357136197136198,0.026811999999999947,0.770859,36.461,0.603,2.956,44.373,15.011163734776725,1.2169989852170813,-0.00275131505820268,-0.00226247362696889,-0.00270225567475194,0.956639,0.901793,0.851032
0.04464202464202479,0.03351499999999996,0.777562,39.446,0.596,3.449,44.161,12.804001159756453,1.1195304973888354,-0.00247483865308156,-0.0022013244269777,-0.000496176858393332,0.957562,0.901912,0.848517
0.053571761571761814,0.040219000000000005,0.784266,42.858,0.603,2.956,44.586,15.083220568335589,1.0403191936161278,-0.00243119638355454,-0.00249293389198911,0.00213218525046843,0.95806,0.903147,0.847959
0.0625001665001668,0.04692200000000002,0.790969,46.696,0.596,2.463,44.586,18.10231425091352,0.9548141168408429,-0.0024905899944675,-0.00320160145620405,0.00389075390193488,0.95668,0.903326,0.847266
0.07142857142857179,0.053625000000000034,0.797672,50.107,0.603,1.971,45.435,23.051750380517504,0.9067595345959647,-0.0037127228100752,-0.00403966911975312,0.00436798059934389,0.954581,0.903468,0.845783
0.08035697635697663,0.06032799999999994,0.804375,52.879,0.606,2.463,47.77,19.395046691027204,0.9033831955974962,-0.00420637837567682,-0.00516126646502254,0.00456037696494057,0.953753,0.903873,0.845307
0.08928538128538162,0.06703099999999995,0.811078,55.225,0.606,2.956,49.469,16.7351150202977,0.8957718424626527,-0.00379014365698156,-0.00650826620558931,0.00488274757507418,0.952118,0.903049,0.84455
0.0982137862137866,0.07373399999999997,0.817781,57.783,0.621,3.941,52.017,13.198934280639433,0.9002128653756295,-0.00275043612930516,-0.00815625040277748,0.00498587230662304,0.951882,0.901529,0.843409
0.10714219114219159,0.08043699999999998,0.824484,60.129,0.61,4.434,53.927,12.162156066756879,0.8968550948793428,-0.00157650628232767,-0.0101503590379899,0.0045996741558145,0.950987,0.900739,0.84252
0.11607059607059657,0.08714,0.831187,61.834,0.613,5.419,55.626,10.264993541243772,0.8996021606236051,0.000973869612673819,-0.0124782246237785,0.00466543583168868,0.947435,0.898706,0.841366
0.1250003330003336,0.09384400000000004,0.837891,62.9,0.621,6.404,57.961,9.050749531542786,0.9214785373608902,0.00349909080951885,-0.015072190233234,0.00517284826641638,0.94665,0.897723,0.839141
0.13392873792873844,0.10054699999999994,0.844594,63.753,0.621,6.897,58.811,8.527040742351748,0.9224820792747008,0.00591028117131641,-0.0178724273062984,0.00552276614303464,0.945622,0.897465,0.838753
0.14285714285714343,0.10724999999999996,0.851297,65.033,0.631,7.389,60.085,8.1316822303424,0.9239155505666354,0.00839906291306017,-0.0208943609220463,0.0058974634931672,0.943577,0.896082,0.836978
0.15178554778554842,0.11395299999999997,0.858,66.099,0.624,7.882,60.509,7.676858665313373,0.9154298854748181,0.0109254252334539,-0.0239095697040491,0.0062601232724194,0.942081,0.894405,0.834243
0.1607139527139534,0.12065599999999999,0.864703,66.525,0.631,7.882,61.358,7.784572443542248,0.9223299511461855,0.0128552008794556,-0.0270064185309009,0.00634213851123273,0.939483,0.893356,0.834054
0.16964235764235838,0.127359,0.871406,66.738,0.638,8.375,62.845,7.503880597014925,0.9416674158650244,0.014025363914523,-0.0301781574710692,0.00533425218200598,0.938249,0.892573,0.83245
0.17857076257076337,0.13406200000000001,0.878109,67.165,0.638,8.375,63.269,7.554507462686567,0.9419935978560261,0.0160643181089972,-0.0334024207844484,0.00486717068594003,0.935287,0.890978,0.831802
0.18749916749916837,0.14076500000000003,0.884812,68.231,0.642,8.867,64.118,7.231081538288033,0.9397194823467339,0.017954369130974,-0.036551779571038,0.00414021621012294,0.93171,0.890447,0.830354
0.19642890442890523,0.14746899999999996,0.891516,68.871,0.638,8.867,64.118,7.231081538288033,0.9309869175705304,0.0198735638490243,-0.0395548754026866,0.0035402911414984,0.932647,0.889732,0.82912
0.20535730935731022,0.15417199999999998,0.898219,69.084,0.642,9.36,64.755,6.918269230769231,0.9373371547681083,0.0219450173568255,-0.0425878452221374,0.00253706597073595,0.931149,0.889861,0.828078
0.21428571428571522,0.160875,0.904922,69.084,0.646,9.36,66.029,7.054380341880342,0.9557784725841004,0.0246230455461188,-0.0455146937130542,0.00210400806309342,0.929355,0.888792,0.826808
0.2232141192141202,0.167578,0.911625,69.51,0.646,9.36,65.817,7.031730769230769,0.9468709538195942,0.0264192652119877,-0.0484318174127972,0.000890823534989482,0.928369,0.887843,0.825481
0.2321425241425252,0.17428100000000002,0.918328,70.363,0.649,9.853,66.454,6.744544808687709,0.9444452340008243,0.0286838462115129,-0.0512310508840658,0.000157019351042761,0.926089,0.887408,0.824152
0.24107092907093017,0.18098400000000003,0.925031,70.79,0.638,9.853,66.242,6.723028519232722,0.9357536375194236,0.030795714470955,-0.0537103563590962,-0.000376468050700463,0.924268,0.886574,0.823276
0.24999933399933516,0.18768700000000005,0.931734,70.576,0.649,9.853,66.666,6.766061098142697,0.9445987304466108,0.0330526354546491,-0.05620512080053,-0.000583815506500785,0.923077,0.885725,0.821686
0.25892773892774,0.19438999999999995,0.938437,70.363,0.646,9.36,67.516,7.213247863247864,0.9595383937580831,0.0351686156179764,-0.0586193983746563,-0.000695006812594951,0.921435,0.885256,0.821151
0.2678574758574769,0.20109399999999988,0.945141,70.363,0.642,9.36,67.091,7.16784188034188,0.953498287452212,0.0374213078220577,-0.0609550721101441,-0.000359174648259866,0.920243,0.885064,0.82064
0.27678588078588173,0.2077969999999998,0.951844,71.003,0.642,9.36,67.303,7.190491452991453,0.9478895257946847,0.0391848917555311,-0.0633156388481621,-0.000839109070863535,0.91962,0.884986,0.819258
0.2857142857142867,0.2144999999999998,0.958547,71.216,0.642,9.36,66.879,7.145192307692309,0.939100763873287,0.0408583844196873,-0.0654740217993206,-0.00145564850988096,0.918125,0.884199,0.818951
0.2946426906426917,0.22120299999999982,0.96525,70.576,0.642,9.36,67.091,7.16784188034188,0.9506206075719792,0.0427500759817024,-0.0674467996775944,-0.00203038759397559,0.916438,0.883745,0.818142
0.3035710955710964,0.2279059999999996,0.971953,70.15,0.646,8.867,67.516,7.614300214277659,0.9624518888096935,0.0446579969740922,-0.0695458016161282,-0.00252866315993029,0.915001,0.88316,0.816569
0.3124995004995012,0.2346089999999995,0.978656,69.937,0.649,8.867,66.666,7.51843915642269,0.9532293349729042,0.0464811535562247,-0.0715533334463231,-0.00293321219794219,0.914388,0.882309,0.815612
0.3214279054279062,0.24131199999999953,0.985359,70.363,0.649,9.36,66.666,7.1224358974358974,0.9474581811463411,0.0481556951640902,-0.0734227385739855,-0.00279393157622857,0.912795,0.882909,0.815329
0.3303563103563112,0.24801499999999954,0.992062,70.15,0.638,8.867,66.029,7.446599751889026,0.941254454739843,0.0497922558582442,-0.0753669082173949,-0.00243755607107792,0.911703,0.882117,0.814925
0.33928604728604805,0.2547189999999995,0.998766,69.297,0.642,8.375,66.029,7.884059701492537,0.9528406713133325,0.050901558819601,-0.0773939952625859,-0.00186480458963565,0.910537,0.881929,0.813984
0.3482144522144529,0.2614219999999994,1.005469,68.444,0.638,8.375,66.242,7.909492537313433,0.9678277131669687,0.0516868065489284,-0.0793301930933261,-0.00114413281656363,0.908511,0.881549,0.813468
0.35714285714285804,0.2681249999999995,1.012172,68.231,0.631,8.375,65.18,7.78268656716418,0.9552842549574242,0.0521895917161294,-0.0810721081825295,-0.000421115467947553,0.907112,0.881265,0.812667
0.3660712620712629,0.2748279999999994,1.018875,68.444,0.624,8.375,64.755,7.731940298507462,0.9461019227397579,0.0526035163732204,-0.0826894682458772,0.000462315017501534,0.906184,0.881401,0.811907
0.374999666999668,0.28153099999999953,1.025578,68.018,0.613,7.882,64.118,8.13473737630043,0.9426622364668176,0.0536567177780707,-0.0842970470579124,0.00149273705821234,0.90529,0.880769,0.811613
0.3839280719280729,0.28823399999999944,1.032281,67.165,0.61,7.389,64.118,8.67749357152524,0.954634110027544,0.0543177709282746,-0.0856650204492537,0.00263370132088801,0.90367,0.880396,0.811264
0.3928564768564777,0.29493699999999934,1.038984,66.099,0.603,7.389,64.118,8.67749357152524,0.9700298037791796,0.0551746416123909,-0.0869305687389337,0.00397454984488621,0.90455,0.881,0.810598
0.40178488178488286,0.30163999999999946,1.045687,65.886,0.596,6.897,63.057,9.142670726402784,0.9570621983425919,0.0558874414182626,-0.0880893709814884,0.00556474077696524,0.904254,0.880855,0.809734
0.41071461871461984,0.3083439999999995,1.052391,65.886,0.596,6.897,62.845,9.111932724372915,0.9538445193212519,0.0568024521039073,-0.0891486310068219,0.00775443576750726,0.904495,0.880764,0.809423
0.4196430236430247,0.3150469999999994,1.059094,65.246,0.588,6.897,61.995,8.988690735102217,0.9501731906936824,0.057171370198184,-0.0898971710142758,0.0101323438104341,0.904208,0.880261,0.80811
0.4285714285714298,0.32174999999999954,1.065797,64.18,0.596,6.897,61.783,8.95795273307235,0.9626519164848861,0.0572557824924757,-0.0906594396631776,0.0124762554263211,0.903441,0.880677,0.807774
0.4374998334998347,0.32845299999999944,1.0725,63.114,0.592,6.404,61.358,9.581199250468456,0.9721773299109547,0.0573045909607339,-0.0911575671526397,0.0148969631635073,0.90365,0.880929,0.807256
0.44642823842823953,0.33515599999999934,1.079203,62.474,0.592,5.912,60.085,10.163227334235454,0.9617600921983546,0.0574594045614715,-0.0917040185900472,0.0172467823527967,0.9034,0.880977,0.806711
0.45535664335664466,0.34185899999999947,1.085906,62.048,0.596,5.912,59.66,10.091339648173207,0.9615136668385765,0.0576800008582791,-0.0924338930220835,0.0197581373887722,0.903487,0.881504,0.806657
0.4642850482850495,0.3485619999999994,1.092609,60.981,0.592,5.912,58.598,9.9117050067659,0.9609222544727045,0.0572688936009456,-0.0929051083644558,0.0218372533750758,0.903376,0.882051,0.806494
0.47321345321345465,0.3552649999999995,1.099312,59.489,0.599,5.419,58.386,10.774312603801441,0.9814587570811412,0.0573785400513395,-0.0932651005535241,0.0239727159786395,0.905144,0.882679,0.806331
0.4821431901431917,0.36196899999999954,1.106016,57.996,0.596,5.419,57.537,10.617641631297287,0.9920856610800745,0.0569976369601393,-0.0936876402601675,0.0256665170974066,0.904176,0.882602,0.805905
0.4910715950715965,0.36867199999999944,1.112719,56.93,0.599,4.926,55.838,11.335363377994316,0.9808185490953804,0.0564676878723734,-0.0939118935479523,0.0272714347591075,0.904976,0.882898,0.805266
0.5000000000000013,0.37537499999999935,1.119422,55.651,0.599,4.926,55.201,11.206049533089727,0.991913891933658,0.0553860795645516,-0.0937462816891199,0.028100084373656,0.904644,0.883442,0.805309
0.5089284049284065,0.3820779999999995,1.126125,53.092,0.596,3.941,53.927,13.683582846993149,1.0157274165599337,0.0550625662565034,-0.0940605107427826,0.0290904091231617,0.906226,0.883588,0.805559
0.5178568098568113,0.3887809999999994,1.132828,50.32,0.603,3.449,53.715,15.574079443316904,1.0674682034976153,0.0543429309444424,-0.0944487355987239,0.0291142283288199,0.906741,0.883976,0.804955
0.5267852147852164,0.3954839999999995,1.139531,47.762,0.603,3.449,53.927,15.635546535227602,1.1290775093170302,0.0538349830054132,-0.0947558888549403,0.0287151598820029,0.907278,0.885589,0.804514
0.5357136197136213,0.4021869999999994,1.146234,45.843,0.599,3.941,54.14,13.73763004313626,1.1809872826821979,0.0534848048112729,-0.0953976156033469,0.0278237709828141,0.904786,0.884839,0.804045
0.5446433566433583,0.40889099999999945,1.152938,43.711,0.603,5.912,55.626,9.408998646820027,1.272585847955892,0.0539079462407159,-0.0962950627099838,0.0270240214311272,0.904292,0.885755,0.804013
0.5535717615717631,0.41559399999999935,1.159641,41.152,0.599,7.389,55.838,7.556908918662877,1.3568720839813375,0.0545097366050391,-0.0971416798894793,0.0257947326870101,0.904259,0.885684,0.803516
0.5625001665001683,0.4222969999999995,1.166344,38.593,0.603,7.389,56.051,7.5857355528488295,1.4523618272743761,0.0556026802519694,-0.0981946465796417,0.0246804732157476,0.904507,0.886043,0.80285
0.5714285714285732,0.4289999999999994,1.173047,36.674,0.603,7.882,55.626,7.057345851306775,1.5167693733980476,0.0570489062816145,-0.0991891038290338,0.0232797822114982,0.904222,0.886373,0.802426
0.5803569763569782,0.4357029999999995,1.17975,35.182,0.603,7.882,54.777,6.9496320730778995,1.5569609459382638,0.0590796350548614,-0.100118110160395,0.0220847454230092,0.903434,0.88637,0.801605
0.5892853812853831,0.4424059999999994,1.186453,33.689,0.606,8.375,55.201,6.591164179104478,1.6385467066401496,0.0611531825655959,-0.101042204184578,0.0204865738628883,0.903436,0.886522,0.801569
0.5982137862137882,0.44910899999999954,1.193156,31.344,0.603,8.375,54.989,6.565850746268656,1.7543708524757529,0.0635227705740822,-0.102003899420085,0.0191804549662637,0.903236,0.886597,0.801803
0.607142191142193,0.45581199999999944,1.199859,29.212,0.61,8.375,54.989,6.565850746268656,1.882411337806381,0.066702773581749,-0.103005403664171,0.0179255119066264,0.901992,0.886707,0.800645
0.6160719280719301,0.4625159999999995,1.206563,27.932,0.603,8.375,54.564,6.51510447761194,1.9534583989689247,0.0698463857633477,-0.104242912347526,0.0163764843784515,0.901918,0.888063,0.801672
0.625000333000335,0.4692189999999994,1.213266,26.866,0.603,8.867,53.715,6.057854967858351,1.9993672299560785,0.0726912086309131,-0.105370632162078,0.0143658641600571,0.901694,0.888256,0.801812
0.63392873792874,0.4759219999999995,1.219969,25.587,0.61,9.36,54.352,5.806837606837607,2.124203697189979,0.0759960958640714,-0.10655992846368,0.0122669827330958,0.90072,0.888419,0.802413
0.6428571428571449,0.4826249999999994,1.226672,23.668,0.61,9.36,54.14,5.784188034188035,2.2874767618725707,0.0790285446693176,-0.107708855549418,0.0097160266129775,0.900244,0.889434,0.803523
0.6517855477855501,0.48932799999999954,1.233375,22.389,0.613,9.36,54.352,5.806837606837607,2.4276207065969895,0.081559873197062,-0.108879068429952,0.00683712952055765,0.899694,0.890174,0.804665
0.6607139527139548,0.49603099999999944,1.240078,21.749,0.61,8.867,53.927,6.081763843464531,2.4795162995999815,0.0840278163148263,-0.109826943834533,0.00410018633573799,0.899517,0.890578,0.806422
0.6696423576423597,0.5027339999999993,1.246781,21.323,0.61,9.853,53.29,5.408505023850604,2.4991792899685783,0.0861445089312961,-0.110523979297366,0.00156637453158338,0.899851,0.889856,0.807874
0.6785707625707649,0.5094369999999995,1.253484,20.47,0.61,9.853,53.715,5.451639094691973,2.6240840254030293,0.0871736963943414,-0.110768132595971,-0.000723705539046759,0.900725,0.890436,0.809933
0.6875004995005018,0.5161409999999995,1.260188,18.977,0.61,10.345,53.29,5.151280811986466,2.808136164831111,0.0879555431488769,-0.110783166591765,-0.00277197781378531,0.901839,0.88986,0.810808
0.6964289044289067,0.5228439999999994,1.266891,18.124,0.621,10.838,53.503,4.936611921018638,2.9520525270359745,0.0878715111010773,-0.11032071381408,-0.00402329363458098,0.902536,0.889702,0.813205
0.7053573093573116,0.5295469999999993,1.273594,18.124,0.61,10.345,52.866,5.110294828419526,2.916905760317811,0.0879289038853311,-0.109317882713642,-0.00466447734613889,0.903512,0.889139,0.815822
0.7142857142857167,0.5362499999999994,1.280297,18.337,0.61,10.345,52.017,5.0282261962300625,2.8367235643780337,0.0862859230287787,-0.107658546767026,-0.00552917419811901,0.904603,0.889538,0.819294
0.7232141192141215,0.5429529999999994,1.287,17.911,0.61,10.838,52.654,4.858276434766562,2.9397576908045333,0.0841121613328756,-0.105204357716318,-0.00619644926246619,0.907756,0.891291,0.823356
0.7321425241425267,0.5496559999999995,1.293703,17.058,0.613,10.345,52.229,5.048719188013533,3.061847813342713,0.081078505490623,-0.101445145279178,-0.0061024762342304,0.908664,0.891522,0.829533
0.7410709290709315,0.5563589999999994,1.300406,16.845,0.621,10.345,52.441,5.069212179797003,3.1131493024636394,0.0775812775443478,-0.0965451218875072,-0.00596099043681183,0.911055,0.892685,0.835247
0.7499993339993366,0.5630619999999995,1.307109,17.058,0.617,9.853,51.592,5.236171724347915,3.024504631258061,0.0728707152865242,-0.0906310071326902,-0.0059824212719907,0.914661,0.894778,0.840882
0.7589277389277415,0.5697649999999994,1.313812,17.485,0.613,9.853,50.955,5.171521364051558,2.9142121818701745,0.0679423861819783,-0.0839595476759606,-0.00615182212836391,0.920944,0.896085,0.846553
0.7678574758574785,0.5764689999999995,1.320516,17.271,0.617,9.853,51.38,5.214655434892927,2.974929071854554,0.0626339890805401,-0.0769448645322549,-0.00677499069529942,0.925253,0.896947,0.850761
0.7767858807858834,0.5831719999999994,1.327219,16.419,0.628,8.867,50.955,5.746588474117513,3.1034167732505025,0.0569952391624746,-0.0702132856571893,-0.00843143046364704,0.930044,0.898069,0.854085
0.7857142857142885,0.5898749999999995,1.333922,16.419,0.646,8.867,50.955,5.746588474117513,3.1034167732505025,0.0508429056562637,-0.0639478228866966,-0.0103904001957999,0.932254,0.89808,0.855583
0.7946426906426933,0.5965779999999994,1.340625,17.058,0.653,8.375,50.318,6.008119402985074,2.949818267088756,0.0448957408611481,-0.0585421341312067,-0.0129896161961283,0.93612,0.899366,0.856128
0.8035710955710984,0.6032809999999995,1.347328,17.698,0.674,8.375,49.469,5.9067462686567165,2.7951745959995478,0.0400932339075703,-0.0538911284191903,-0.0145932102220024,0.938159,0.899597,0.856198
0.8124995004995033,0.6099839999999994,1.354031,17.911,0.681,7.882,49.893,6.329992387718853,2.785606610462844,0.036105529647112,-0.05014123120924,-0.015938779734475,0.938468,0.899927,0.856402
0.8214279054279084,0.6166869999999995,1.360734,17.485,0.685,7.882,49.469,6.2761989342806395,2.829225050042894,0.0326201988894915,-0.0470732445364468,-0.0167366391636341,0.941055,0.89979,0.856588
0.8303563103563133,0.6233899999999994,1.367437,17.698,0.685,7.882,49.469,6.2761989342806395,2.7951745959995478,0.0299374164101362,-0.0446347838443286,-0.0177863719454802,0.941646,0.900004,0.856323
0.8392860472860503,0.6300939999999995,1.374141,18.551,0.656,7.882,48.832,6.195381882770871,2.632310926634683,0.0278666503696927,-0.0424464830212524,-0.0181627991306123,0.942481,0.899308,0.855799
0.8482144522144551,0.6367969999999994,1.380844,19.19,0.628,7.389,48.195,6.522533495736906,2.511464304325169,0.0254360552873032,-0.0406518703445034,-0.0192780601295128,0.943506,0.899868,0.855671
0.85714285714286,0.6434999999999993,1.387547,19.19,0.624,6.897,48.62,7.049441786283891,2.533611255862428,0.0232882869642978,-0.0390034738483916,-0.0195950950487316,0.943201,0.89831,0.855609
0.8660712620712645,0.650202999999999,1.39425,18.977,0.617,6.897,47.983,6.957082789618674,2.5284818464456973,0.0214420316000692,-0.0373179140075621,-0.019558660991346,0.94359,0.898682,0.855463
0.8749996669996694,0.6569059999999989,1.400953,19.617,0.621,6.897,47.983,6.957082789618674,2.4459907223326702,0.0194173981685638,-0.0353376306856497,-0.019061818434888,0.945203,0.898885,0.855942
0.8839280719280742,0.6636089999999988,1.407656,20.256,0.613,6.404,47.346,7.393191755153029,2.3373815165876777,0.0175438273531946,-0.0332113375342001,-0.017946986686927,0.945572,0.897866,0.85536
0.8928564768564787,0.6703119999999985,1.414359,20.896,0.621,5.912,46.921,7.936569688768606,2.2454536753445633,0.0161214526052124,-0.0307007199850738,-0.0158874446315414,0.943741,0.897195,0.855313
0.9017848817848836,0.6770149999999984,1.421062,21.109,0.624,5.912,47.346,8.008457374830853,2.2429295561135056,0.0141297692983801,-0.0276661973096088,-0.0136751383123803,0.946111,0.896499,0.854249
0.9107146187146203,0.6837189999999982,1.427766,21.109,0.624,5.419,46.921,8.65860859937258,2.222795963806907,0.011916637993098,-0.0242970909197424,-0.011394771663908,0.94759,0.896974,0.854766
0.9196430236430252,0.6904219999999981,1.434469,21.749,0.628,5.419,46.921,8.65860859937258,2.1573865465078854,0.00983975123105902,-0.0207621595873948,-0.0088579766826103,0.948771,0.896785,0.853764
0.9285714285714299,0.697124999999998,1.441172,22.602,0.621,5.419,46.284,8.541059236021407,2.0477833820015925,0.00799370310321245,-0.0171505433693748,-0.00650657788504322,0.949919,0.897974,0.853484
0.9374998334998348,0.7038279999999979,1.447875,23.028,0.628,4.926,46.072,9.352821762078767,2.0006948063227377,0.00612341390770393,-0.0135079493378442,-0.00446956332036732,0.951469,0.899365,0.853757
0.9464282384282394,0.7105309999999976,1.454578,23.028,0.628,4.434,46.709,10.53428055931439,2.028356783046726,0.00439828434680278,-0.0102381649900378,-0.00302455707386641,0.953186,0.899474,0.854034
0.9553566433566442,0.7172339999999975,1.461281,23.242,0.61,3.941,46.072,11.690433900025376,1.9822734704414422,0.0032333801810583,-0.00725753054298955,-0.00163332573568447,0.955311,0.901125,0.85472
0.9642850482850488,0.7239369999999972,1.467984,24.094,0.588,3.941,46.072,11.690433900025376,1.9121773055532498,0.00271138994980907,-0.0046318270820059,-0.000119652452763242,0.955911,0.901831,0.853824
0.9732134532134535,0.7306399999999971,1.474687,24.947,0.856,3.941,45.435,11.528799797005837,1.8212610734757688,0.00212466125770615,-0.00241062379555145,0.00116325507461195,0.956417,0.902654,0.853796
0.9821431901431903,0.7373439999999969,1.481391,25.374,1.213,3.449,45.223,13.111916497535518,1.7822574288641917,0.00194262974131609,-0.000655845904101098,0.00210247860976595,0.956557,0.903352,0.853473
0.9910715950715955,0.744046999999997,1.488094,25.8,1.428,3.449,45.647,13.234850681356916,1.7692635658914728,0.00173130484534922,0.000216299072708162,0.00255044631555214,0.959885,0.904342,0.852957
1.0,0.7507499999999967,1.494797,26.653,1.288,3.449,44.798,12.988692374601335,1.6807864030315538,0.000990144357948745,0.000286744221154168,0.00193872234630203,0.961383,0.905552,0.852816
