cardiac cycle [%],t abs [s],t [s],LVP [mmHg],ECG [mV],LAD Flow [ml/s],AoP [mmHg],rad strain,circ strain,long strain,tissue vol ischemic [ml],tissue vol border [ml],tissue vol remote [ml]
0.0,0.0,0.335156,14.073,1.449,1.971,46.709,0.0,0.0,0.0,1.159721,1.222822,0.975994
0.011904529333307311,0.0067030000000000145,0.341859,14.926,1.192,3.941,46.284,-0.00206046682858887,0.000597832820835824,-0.000191492483223116,1.15569,1.220314,0.971416
0.023809058666614525,0.013405999999999973,0.348562,16.632,0.753,5.419,46.284,-0.00466431089827009,0.00118182655733106,0.000396480508314855,1.152168,1.219617,0.967231
0.0357153640001208,0.020110000000000017,0.355266,19.404,0.617,10.345,45.859,-0.00739853607068511,0.00245265269999726,0.00198852363015355,1.15174,1.215708,0.961905
0.04761989333342801,0.026812999999999976,0.361969,27.932,0.567,9.853,45.859,-0.0114349976007337,0.00414556767060467,0.00279933865678288,1.154565,1.212622,0.958572
0.05952442266673532,0.03351599999999999,0.368672,32.197,0.567,14.286,45.435,-0.0169247522230038,0.00593063787681637,0.00292992945122097,1.154627,1.217387,0.959865
0.07142895200004264,0.040219000000000005,0.375375,38.807,0.578,14.779,46.072,-0.0214236883333034,0.00788188374961434,0.00339986427943268,1.157809,1.219587,0.96025
0.08333348133334985,0.046921999999999964,0.382078,45.416,0.563,1.971,47.133,-0.0262357373129483,0.00921630028981888,0.00428447346640857,1.161012,1.220243,0.958968
0.09523801066665716,0.05362499999999998,0.388781,51.813,0.581,8.867,48.832,-0.0280056809206058,0.00981657283103453,0.0058732061854186,1.160776,1.218764,0.958499
0.10714253999996447,0.06032799999999999,0.395484,57.144,0.585,17.242,52.017,-0.0281730290160233,0.00934630551245986,0.00860497690617184,1.157348,1.216716,0.957275
0.11904706933327178,0.06703100000000001,0.402187,60.342,0.585,19.212,56.051,-0.0267481923476285,0.00840440736238165,0.0112995394818841,1.159384,1.213913,0.955072
0.13095337466677795,0.073735,0.408891,62.687,0.603,21.183,59.872,-0.0237853520072433,0.00658993684386558,0.0118979698788646,1.157253,1.210123,0.952152
0.14285790400008527,0.08043800000000001,0.415594,64.18,0.588,20.69,63.269,-0.0206767368455367,0.00352387486081437,0.0112321409409629,1.155064,1.20587,0.948694
0.15476243333339249,0.08714099999999997,0.422297,64.819,0.596,20.197,64.968,-0.0190825582223624,0.000398472422518677,0.0116868362214591,1.154192,1.203112,0.944785
0.16666696266669978,0.09384399999999998,0.429,65.246,0.603,20.69,66.454,-0.0187299993217765,-0.00357763640834763,0.0114619392421088,1.152762,1.200513,0.941609
0.1785714920000071,0.100547,0.435703,65.246,0.592,17.734,67.728,-0.0194180714306688,-0.00710031409724609,0.0113371493547317,1.148534,1.194317,0.937337
0.19047602133331443,0.10725000000000001,0.442406,65.672,0.599,17.734,67.728,-0.0192528885946523,-0.0109123190960571,0.0126032553246835,1.145341,1.189452,0.933505
0.20238055066662164,0.11395299999999997,0.449109,66.099,0.585,18.72,69.214,-0.0193049553338521,-0.0150361106652405,0.0134398220419873,1.14293,1.184105,0.929495
0.21428507999992893,0.12065599999999999,0.455812,65.886,0.596,19.212,69.426,-0.0213502864234608,-0.0186645914995475,0.0132602022602864,1.140053,1.178936,0.925558
0.2261913853334351,0.12735999999999997,0.462516,65.886,0.588,18.72,69.639,-0.0211451249194461,-0.0228361634112042,0.012720583933732,1.131362,1.172902,0.921099
0.23809591466674243,0.134063,0.469219,65.459,0.571,15.271,69.214,-0.0203166699651087,-0.0269396588655654,0.0125891382353442,1.129526,1.168023,0.917804
0.2500004440000497,0.140766,0.475922,65.246,0.581,23.646,70.276,-0.0251097144745918,-0.0299913136040105,0.0118897717975982,1.127002,1.163963,0.914441
0.26190497333335705,0.14746900000000002,0.482625,65.246,0.56,16.256,69.851,-0.0247617441205904,-0.0336708439793954,0.0110233122093178,1.123301,1.158525,0.910371
0.27380950266666426,0.15417199999999998,0.489328,64.606,0.585,19.212,69.639,-0.0252769844704669,-0.0348005409450062,0.012069124894596,1.100432,1.153186,0.907818
0.2857140319999716,0.160875,0.496031,64.18,0.571,17.242,69.639,-0.0345175568267046,-0.0376815841377118,0.00658059867144985,1.118936,1.15162,0.905309
0.2976185613332789,0.167578,0.502734,63.967,0.578,16.256,69.002,-0.0430197643656404,-0.0404942033399331,0.00157250432768723,1.096203,1.145698,0.902065
0.30952486666678497,0.17428199999999994,0.509438,63.753,0.603,15.764,69.214,-0.0421232615937055,-0.0438863442315695,0.00177496468510606,1.092367,1.139494,0.898294
0.3214293960000923,0.18098499999999995,0.516141,63.753,0.588,16.749,69.426,-0.0487674631172537,-0.0470793778877614,-0.00285839621408035,1.088875,1.13845,0.895806
0.33333392533339956,0.18768799999999997,0.522844,63.114,0.617,15.764,69.214,-0.0483295854297315,-0.0498134496487026,-0.00340151807480115,1.085712,1.133106,0.892706
0.3452384546667069,0.19439099999999998,0.529547,62.9,0.617,12.808,69.002,-0.0447485440652084,-0.0526762482165562,-0.00257179863405093,1.082188,1.129125,0.889831
0.3571429840000142,0.201094,0.53625,62.474,0.646,13.301,68.577,-0.0412550965461151,-0.0556022098433788,-0.00304044921436893,1.081975,1.125724,0.888319
0.36904751333332153,0.207797,0.542953,62.048,0.724,12.808,68.365,-0.0408371595066275,-0.0583136563580974,-0.00476643034053404,1.076669,1.121215,0.886415
0.38095204266662885,0.21450000000000002,0.549656,61.834,0.753,12.808,67.94,-0.0385349313392722,-0.0614545067767178,-0.00557172846203946,1.076301,1.122436,0.884416
0.3928565719999361,0.22120300000000004,0.556359,60.981,0.756,12.316,67.303,-0.0370743622089017,-0.0642291568381701,-0.00480071356050541,1.074014,1.118935,0.882287
0.4047611013332433,0.22790599999999994,0.563062,60.555,0.71,10.345,66.666,-0.0360915068504498,-0.0665146468854736,-0.00533905234726575,1.074225,1.117803,0.881703
0.41666740666674956,0.23460999999999999,0.569766,59.702,0.66,9.853,65.817,-0.0347626149851048,-0.0689980262920666,-0.00591687466714444,1.070009,1.115001,0.880342
0.42857193600005683,0.241313,0.576469,59.063,0.649,8.375,65.605,-0.0332408125096711,-0.0706701399240387,-0.00543375508970368,1.066053,1.11097,0.878794
0.44047646533336415,0.24801600000000001,0.583172,58.21,0.628,8.375,64.755,-0.032464862020895,-0.0724673397797374,-0.00484936165330714,1.062489,1.108253,0.877479
0.4523809946666715,0.25471900000000003,0.589875,57.144,0.638,7.882,63.694,-0.0316795895474462,-0.0741768588600294,-0.00389307233924123,1.06117,1.106279,0.875924
0.4642855239999788,0.26142200000000004,0.596578,56.291,0.624,7.389,63.057,-0.0303588496764524,-0.0759802109297471,-0.00308494523817732,1.060661,1.105443,0.875599
0.4761900533332859,0.26812499999999995,0.603281,55.225,0.631,7.389,62.208,-0.0286604881691947,-0.0775805028156342,-0.00261785781289511,1.058793,1.103185,0.874311
0.4880945826665932,0.27482799999999996,0.609984,54.158,0.642,5.912,61.146,-0.0285657735472395,-0.0789632412388066,-0.0032725223969223,1.057667,1.1012,0.873465
0.4999991119999005,0.281531,0.616687,52.666,0.624,6.404,60.297,-0.0287296954767769,-0.0801415293242123,-0.00409051200845913,1.055411,1.097744,0.873764
0.5119054173334068,0.288235,0.623391,51.173,0.646,5.912,58.811,-0.0276461757981335,-0.0816351022713093,-0.00535539198809614,1.050978,1.094358,0.872771
0.5238099466667141,0.29493800000000003,0.630094,49.468,0.631,4.926,57.537,-0.0269647308844785,-0.0833324965712922,-0.00524161900622086,1.050414,1.094417,0.873715
0.5357144760000212,0.30164099999999994,0.636797,47.335,0.628,4.434,56.263,-0.0260785230834624,-0.0852184109383912,-0.00574758932444166,1.050399,1.096423,0.874161
0.5476190053333285,0.30834399999999995,0.6435,44.99,0.638,3.941,54.989,-0.0157877395727121,-0.0875061725903345,-0.00493863422277147,1.048793,1.094341,0.8743
0.5595235346666358,0.31504699999999997,0.650203,42.005,0.621,3.941,53.503,-0.0127004320576866,-0.089716435694976,-0.0045800091123079,1.047431,1.093677,0.874307
0.5714280639999432,0.32175,0.656906,38.38,0.642,2.463,51.38,-0.013167622736091,-0.0920413193235946,-0.00374616500692039,1.070577,1.094692,0.875672
0.5833325933332505,0.328453,0.663609,34.542,0.628,1.971,49.681,-0.01460162826161,-0.0935533814921237,-0.00686907297137788,1.04584,1.094817,0.877948
0.5952371226665578,0.335156,0.670312,34.542,0.635,-0.492,47.133,-0.0151823399946428,-0.095388785130105,-0.00966905499128847,1.042927,1.094383,0.879898
0.6071434280000638,0.34185999999999994,0.677016,59.063,0.642,-0.985,44.373,-0.0152232081220239,-0.098935298141811,-0.00853070874816724,1.036956,1.095073,0.881356
0.6190479573333711,0.34856299999999996,0.683719,57.357,0.628,2.956,42.675,-0.00768114049561009,-0.102810452474519,-0.00569151010755252,1.034545,1.093467,0.881762
0.6309524866666785,0.35526599999999997,0.690422,59.702,0.642,17.734,45.01,0.000210883330011765,-0.106759826024075,-0.00410670815966196,1.025512,1.093255,0.884789
0.6428570159999858,0.361969,0.697125,61.408,0.628,18.227,48.407,0.00884800617503462,-0.110212246698081,-0.00152061785569009,1.019923,1.095449,0.886451
0.6547615453332931,0.368672,0.703828,61.621,0.638,17.242,49.257,0.0158595597683863,-0.11499787630453,-0.000555876728391917,1.017206,1.092399,0.886594
0.6666660746666004,0.375375,0.710531,62.9,0.642,11.33,49.469,0.0219370489742368,-0.11709055578472,-0.00107376071028828,1.014438,1.089225,0.886731
0.6785706039999078,0.38207800000000003,0.717234,63.114,0.631,9.36,48.832,0.0270522997545596,-0.121226064468029,-0.001283724397602,1.008807,1.088715,0.886366
0.6904769093334138,0.38878199999999996,0.723938,60.342,0.642,10.345,48.407,0.0279678058539623,-0.125837487473823,-0.00326189421631073,1.005756,1.090533,0.887906
0.7023814386667211,0.395485,0.730641,52.239,0.628,9.853,48.195,0.0291260146201917,-0.130531430515898,-0.00602694507471302,1.001877,1.089999,0.888881
0.7142859680000284,0.402188,0.737344,34.542,0.635,12.808,47.983,0.0279862546816088,-0.135036429131192,-0.00693597550102298,0.998115,1.089889,0.890329
0.7261904973333357,0.408891,0.744047,19.19,0.646,7.389,48.407,0.0353880843361754,-0.138473387434203,-0.0074623488369696,0.999581,1.091185,0.889028
0.7380950266666431,0.415594,0.75075,10.022,0.663,8.867,48.195,0.0430050360732925,-0.142573783745819,-0.00699662369390413,0.99941,1.093295,0.890677
0.7499995559999504,0.42229700000000003,0.757453,4.691,0.71,1.971,48.195,0.0561183273619177,-0.145405899492552,-0.00337255079526825,1.012999,1.098689,0.889742
0.7619040853332575,0.42899999999999994,0.764156,4.265,0.756,4.926,48.195,0.0682519950046526,-0.147055686277868,-0.000243521737224505,1.014557,1.10217,0.89241
0.7738086146665648,0.43570299999999995,0.770859,3.839,0.803,8.867,48.195,0.0778184216343027,-0.142799681167259,0.00430612204512389,1.020492,1.107411,0.895757
0.7857131439998721,0.44240599999999997,0.777562,3.625,0.788,-19.704,48.407,0.070907179423404,-0.134602588631206,0.00323852971106122,1.026513,1.116279,0.898436
0.7976194493333784,0.44911,0.784266,3.412,0.717,-17.241,48.195,0.0606591116591248,-0.123962217145392,0.00323834206322544,1.035185,1.125038,0.901327
0.8095239786666857,0.455813,0.790969,3.199,0.613,16.749,47.983,0.0513144909996512,-0.111677010404671,0.00349187791548493,1.044034,1.133383,0.908548
0.821428507999993,0.46251600000000004,0.797672,3.625,0.574,36.454,48.195,0.0432171008118326,-0.0996609577769105,0.0050824381876834,1.053866,1.141351,0.92106
0.8333330373333001,0.46921899999999994,0.804375,3.839,0.588,12.316,48.407,0.0387562403479097,-0.0868544303979268,0.00733218509076881,1.068426,1.15368,0.924128
0.8452375666666074,0.47592199999999996,0.811078,4.265,0.599,32.02,48.62,0.0336278721348296,-0.0737660834864776,0.00868821712837985,1.081493,1.165224,0.931349
0.8571420959999148,0.48262499999999997,0.817781,4.691,0.599,-6.404,48.62,0.0316674508886856,-0.0620234349138109,0.00977707916633578,1.097807,1.176639,0.937041
0.8690466253332221,0.489328,0.824484,5.544,0.61,16.749,48.62,0.0289243309196879,-0.0508916057859267,0.00895134675017878,1.112024,1.185022,0.943336
0.8809511546665294,0.496031,0.831187,6.61,0.603,24.138,48.832,0.0261584594727813,-0.0414517415699007,0.007782347535865,1.124747,1.192102,0.94894
0.8928574600000356,0.502735,0.837891,7.463,0.613,23.153,48.832,0.0219727852476357,-0.0333244945595036,0.00592963662714481,1.133081,1.198384,0.95471
0.9047619893333427,0.509438,0.844594,8.743,0.624,30.542,48.832,0.019367981745976,-0.0271628082187167,0.00405841064757435,1.14049,1.201765,0.957738
0.91666651866665,0.516141,0.851297,9.809,0.61,18.227,48.62,0.0162747358053701,-0.0230099172167583,0.00423997008444802,1.143747,1.204052,0.959921
0.9285710479999574,0.522844,0.858,11.088,0.628,15.271,48.407,0.0161732974522639,-0.0207334609683907,0.00460455764733072,1.14582,1.205531,0.961768
0.9404755773332647,0.529547,0.864703,11.728,0.613,25.616,48.62,0.0176213829152901,-0.0195761692807098,0.00524231925793925,1.146398,1.206805,0.964073
0.952380106666572,0.53625,0.871406,11.941,0.499,12.316,48.195,0.0187754686225662,-0.0181705663274206,0.00620023506089813,1.148962,1.210576,0.965854
0.9642846359998793,0.542953,0.878109,11.941,0.421,9.853,47.983,0.0219285402689883,-0.0178169521258086,0.00705214509485567,1.148218,1.209404,0.966387
0.9761891653331866,0.549656,0.884812,11.728,1.028,18.72,47.133,0.0228010519217236,-0.0173931630529203,0.0060806518010711,1.147978,1.209697,0.964604
0.9880954706666927,0.55636,0.891516,12.154,1.495,24.138,46.921,0.0200407548608073,-0.0168944487832441,0.0034385703009697,1.145507,1.210806,0.962949
1.0,0.563063,0.898219,13.007,1.081,24.631,46.709,0.0169533022920918,-0.016355096487836,0.00201777916562914,1.144006,1.210287,0.959079
