cardiac cycle [%],t abs [s],t [s],LVP [mmHg],ECG [mV],LAD Flow [ml/s],AoP [mmHg],AoP/Flow,Pao/PLV,rad strain,circ strain,long strain,tissue vol ischemic [ml],tissue vol border [ml],tissue vol remote [ml]
0.0,0.0,0.174281,45.203,1.345,40.887,95.753,2.3418935113850368,2.1182886091631086,0.0,0.0,0.0,0.850938,0.807608,0.810185
0.009900799981093526,0.0067030000000000145,0.180984,52.453,1.499,39.409,94.904,2.4081808723895555,1.8093150058147291,-0.00483671390060912,0.00254917399254775,0.000134904639571795,0.855719,0.80934,0.807167
0.019803077032152862,0.013407000000000002,0.187688,64.819,1.399,37.931,93.418,2.462840420764019,1.4412132245175027,-0.00647039400443228,0.00390838933239735,0.00123731209356621,0.856661,0.807452,0.804441
0.02970387701324639,0.020110000000000017,0.194391,81.664,0.746,36.454,93.63,2.5684424205848466,1.1465272335423198,-0.00365113154042058,0.00379262352555006,0.00304739901223116,0.850207,0.799009,0.811071
0.03960467699433987,0.026813000000000003,0.201094,98.295,0.613,35.468,91.507,2.579987594451336,0.9309425708326975,0.00239930451499411,0.00113064491045105,0.00410640176079629,0.859987,0.803223,0.807607
0.0495054769754334,0.03351600000000002,0.207797,112.154,0.617,33.498,97.876,2.9218460803630073,0.8726929043993081,0.0109322541777757,-0.00206229584005619,0.00524878622559136,0.863327,0.805131,0.807965
0.059406276956526886,0.040219000000000005,0.2145,120.47,0.621,29.557,107.643,3.6418784044388812,0.8935253590105421,0.0212173520006914,-0.00964478194435321,0.00446719140217616,0.86517,0.806304,0.805002
0.06930707693762045,0.04692200000000005,0.221203,124.734,0.606,29.557,115.074,3.893290929390669,0.9225551974601953,0.0326817008046314,-0.0190250970542401,0.000224609512374949,0.864486,0.803787,0.801477
0.07920787691871398,0.05362500000000006,0.227906,126.44,0.581,33.005,122.08,3.698833510074231,0.9655172413793104,0.0445904933985395,-0.0274628946238688,-0.00560124238609036,0.864455,0.803701,0.798047
0.08910867689980755,0.060328000000000104,0.234609,126.014,0.592,33.99,122.293,3.597911150338335,0.9704715349088198,0.0574258409141705,-0.0360220464188144,-0.00996033576846531,0.860934,0.802133,0.795687
0.09900947688090107,0.06703100000000012,0.241312,125.374,0.585,34.483,124.628,3.6141867006930957,0.9940498029894556,0.0747552506912701,-0.0454242576480798,-0.012883142971732,0.854653,0.800456,0.791047
0.10891175393196037,0.07373500000000008,0.248016,124.947,0.588,34.483,124.84,3.6203346576573967,0.9991436369020464,0.0896531249755696,-0.053695282504642,-0.0152103262328669,0.850763,0.801044,0.788998
0.11881255391305381,0.08043800000000004,0.254719,126.227,0.592,34.976,123.779,3.5389695791399816,0.9806063678927646,0.103043224561117,-0.062950943756461,-0.0165224739790733,0.847359,0.799489,0.786038
0.1287133538941474,0.08714100000000008,0.261422,127.719,0.581,34.976,127.388,3.6421546203110706,0.9974083730690031,0.116845879531444,-0.0714389837423258,-0.0174409533314594,0.843573,0.798109,0.78129
0.1386141538752409,0.0938440000000001,0.268125,127.933,0.592,34.976,128.025,3.660367108874657,1.0007191264177342,0.130414301848965,-0.0811894233759887,-0.0175741276772902,0.834383,0.796698,0.779737
0.14851495385633443,0.10054700000000011,0.274828,127.933,0.588,34.483,129.087,3.7434967955224314,1.0090203465876668,0.141409752448303,-0.0892115336628688,-0.0215322961593548,0.831144,0.796245,0.775221
0.15841575383742787,0.10725000000000007,0.281531,128.146,0.603,35.468,132.271,3.7293052892748384,1.0321898459569554,0.151216752115854,-0.0975187067872339,-0.0270547965058588,0.825469,0.794198,0.773544
0.1683165538185214,0.11395300000000008,0.288234,130.065,0.599,35.961,133.333,3.7077111315035736,1.025125898589167,0.161113884295779,-0.104794965922105,-0.0303714277226891,0.821537,0.793588,0.770864
0.17821735379961492,0.1206560000000001,0.294937,131.984,0.596,36.946,135.031,3.6548205489092194,1.0230861316523214,0.169410368126587,-0.111708417079407,-0.0357876649308004,0.816481,0.791592,0.767505
0.18811963085067426,0.12736000000000008,0.301641,132.41,0.603,38.424,135.456,3.525296689569019,1.0230043048108148,0.178477843647993,-0.118386639856572,-0.03950697880394,0.812152,0.790673,0.765913
0.1980204308317678,0.1340630000000001,0.308344,132.623,0.606,39.902,137.579,3.4479224099042654,1.0373690837939122,0.187751589699074,-0.124634673741972,-0.041885949546808,0.807294,0.79001,0.764121
0.20792123081286132,0.1407660000000001,0.315047,132.837,0.613,40.887,138.004,3.375253748135104,1.0388972951813125,0.194710826643086,-0.130398268009884,-0.0462774483131451,0.803177,0.788465,0.760475
0.21782203079395476,0.14746900000000007,0.32175,134.542,0.61,41.38,138.216,3.34016433059449,1.0273074578941892,0.201525309258275,-0.135837876414112,-0.0512788472080578,0.79928,0.787685,0.759739
0.2277228307750483,0.1541720000000001,0.328453,135.822,0.61,41.872,139.065,3.3211931601069926,1.0238768388037283,0.209201445234447,-0.141055548037502,-0.0539297039690015,0.795453,0.786278,0.756833
0.23762363075614182,0.1608750000000001,0.335156,135.395,0.617,41.872,137.791,3.290767099732518,1.0176963698807193,0.217616615899623,-0.146314364262221,-0.0555426911966474,0.792296,0.785933,0.755579
0.24752443073723535,0.16757800000000012,0.341859,134.756,0.61,41.38,139.278,3.365828902851619,1.0335569473715456,0.224890466240876,-0.151439496889219,-0.0566928727279965,0.788112,0.785344,0.75612
0.25742523071832873,0.17428100000000002,0.348562,134.542,0.628,40.887,138.641,3.3908332721892043,1.0304663227839632,0.232085782686205,-0.156419918193585,-0.0585344104068722,0.784504,0.78435,0.753322
0.2673275077693881,0.180985,0.355266,135.395,0.621,40.887,138.216,3.380438770269279,1.0208353336533846,0.238049623984495,-0.161015837168769,-0.0600341994119805,0.780783,0.784535,0.754177
0.2772283077504814,0.1876879999999999,0.361969,136.035,0.617,40.394,138.641,3.4322176560875377,1.0191568346381445,0.243185185534962,-0.164664064816166,-0.0615635657937783,0.776783,0.783283,0.752819
0.287129107731575,0.19439099999999998,0.368672,135.395,0.631,39.902,137.791,3.4532354267956493,1.0176963698807193,0.247632057347129,-0.167869457492067,-0.0628730797611206,0.77415,0.782718,0.751652
0.2970299077126686,0.201094,0.375375,135.182,0.624,39.409,139.702,3.5449262858737853,1.0334364042550044,0.253034357147355,-0.170545951166033,-0.0638135512399104,0.771601,0.782276,0.75079
0.3069307076937621,0.207797,0.382078,135.395,0.631,39.409,139.065,3.5287624654266794,1.0271058754016027,0.258594381011909,-0.173096046706356,-0.0645513427807757,0.768694,0.781384,0.751448
0.3168315076748557,0.21450000000000008,0.388781,136.888,0.624,39.902,138.853,3.479850634053431,1.0143548010052013,0.261687425875549,-0.1758133346087,-0.0668142740545181,0.767032,0.780477,0.74978
0.3267323076559492,0.2212030000000001,0.395484,137.954,0.621,39.902,140.127,3.5117788582025966,1.0157516273540457,0.266271827360171,-0.178420711825076,-0.0679614558079036,0.764571,0.779892,0.750399
0.33663310763704274,0.2279060000000001,0.402187,137.741,0.621,39.902,139.278,3.4905017292366294,1.0111586237939318,0.270443421723498,-0.180893814419,-0.0690693704401808,0.762959,0.779419,0.749267
0.34653538468810197,0.23461000000000004,0.408891,137.741,0.61,40.394,140.976,3.49002327078279,1.0234861079852766,0.274190900921119,-0.183394581401413,-0.0703078743262004,0.761651,0.77865,0.748408
0.3564361846691954,0.241313,0.415594,137.954,0.617,40.394,140.127,3.4690052978165076,1.0157516273540457,0.277519621969129,-0.185690116548643,-0.0715456515259243,0.760614,0.777754,0.748706
0.36633698465028897,0.24801600000000001,0.422297,139.02,0.613,40.394,139.702,3.4584839332574147,1.0049057689541072,0.280965764492908,-0.187661632187163,-0.0732025398113368,0.758649,0.776799,0.748604
0.3762377846313826,0.2547190000000001,0.429,138.807,0.61,40.887,140.552,3.4375718443515053,1.0125714121045768,0.283691012713207,-0.189413951698444,-0.0747876698648385,0.757172,0.776279,0.748078
0.3861385846124761,0.2614220000000001,0.435703,137.527,0.624,41.38,138.853,3.3555582406959883,1.0096417430759053,0.284189057573078,-0.191093336729709,-0.0766468808006497,0.755653,0.775788,0.747352
0.39603938459356963,0.2681250000000001,0.442406,136.461,0.617,41.872,139.702,3.33640619029423,1.0237503755651798,0.284224816678071,-0.192311423128247,-0.0788790668796552,0.754993,0.77512,0.747546
0.40594018457466313,0.2748280000000001,0.449109,135.182,0.617,41.872,137.791,3.290767099732518,1.0192999067923245,0.283930692946973,-0.193036341628715,-0.0805713659407946,0.753752,0.774583,0.747533
0.41584098455575674,0.2815310000000002,0.455812,133.05,0.603,42.365,136.73,3.227428301664109,1.0276587748966552,0.284568906314539,-0.193298142333469,-0.0802909872144209,0.753074,0.774048,0.74755
0.425743261606816,0.28823500000000013,0.462516,127.933,0.599,42.365,136.093,3.212392304968724,1.063783386616432,0.28389652252007,-0.193224672444149,-0.0811335602620713,0.752335,0.77338,0.747313
0.43564406158790947,0.2949380000000001,0.469219,118.977,0.606,42.857,132.908,3.101197003990013,1.1170898577035897,0.280418591247184,-0.191921478462087,-0.0834780857831452,0.752542,0.773156,0.748226
0.44554486156900297,0.3016410000000001,0.475922,108.956,0.596,41.872,131.847,3.1488106610622855,1.2100939828921766,0.278741824010258,-0.189619420253893,-0.0887226436965727,0.752818,0.773619,0.748183
0.4554456615500965,0.3083440000000001,0.482625,98.295,0.606,42.857,129.511,3.021933406444688,1.3175746477440358,0.278292326443672,-0.188222038079206,-0.0923631490935765,0.753125,0.773555,0.749185
0.46534646153119,0.31504700000000013,0.489328,88.7,0.596,46.306,131.21,2.8335420895780246,1.4792559188275085,0.27615001599109,-0.186219702505208,-0.0959136741090003,0.751628,0.77319,0.750857
0.47524726151228364,0.3217500000000002,0.496031,78.892,0.592,50.739,131.21,2.585979227024577,1.6631597627135832,0.276959643730064,-0.184770705234937,-0.0984936389927283,0.750275,0.771906,0.752222
0.4851480614933772,0.3284530000000002,0.502734,69.724,0.599,54.68,129.299,2.3646488661302123,1.8544403648671905,0.277196441258983,-0.183298427492054,-0.10141618288472,0.749637,0.770412,0.753456
0.4950503385444364,0.33515700000000015,0.509438,62.9,0.592,57.143,129.936,2.273874315314212,2.0657551669316376,0.278100555114924,-0.181759406557727,-0.10443178042197,0.749927,0.770135,0.755324
0.50495113852553,0.34186000000000016,0.516141,57.357,0.603,58.621,127.6,2.1766943586769245,2.2246630751259655,0.279120227041585,-0.180307738443605,-0.106597503042462,0.749264,0.770308,0.758202
0.5148519385066235,0.3485630000000002,0.522844,52.453,0.599,58.621,126.751,2.162211494174443,2.416468076182487,0.278781103820811,-0.179691846981023,-0.109811532579022,0.749361,0.770947,0.759492
0.524752738487717,0.3552660000000002,0.529547,46.909,0.603,58.621,126.751,2.162211494174443,2.7020614381035624,0.285988336283164,-0.178292515770088,-0.111968260724645,0.749626,0.771824,0.761691
0.5346535384688106,0.3619690000000002,0.53625,41.578,0.61,59.114,124.628,2.108265385526271,2.9974505748232234,0.290706952967879,-0.176469394787969,-0.112781384763296,0.749997,0.772749,0.763694
0.5445543384499041,0.3686720000000002,0.542953,38.38,0.603,60.099,125.053,2.080783374099403,3.2582855653986447,0.293843771059119,-0.173385995355773,-0.111966772826204,0.751115,0.773902,0.765099
0.5544551384309976,0.37537500000000024,0.549656,36.035,0.606,62.562,122.717,1.9615261660432852,3.405494657971417,0.295139059605775,-0.169774431310506,-0.111239825614927,0.75143,0.775327,0.767702
0.5643559384120911,0.38207800000000025,0.556359,34.116,0.599,62.562,122.293,1.954748889102011,3.584623050767968,0.298393479227526,-0.167036150322433,-0.110295690559254,0.752641,0.777499,0.771783
0.5742567383931845,0.38878100000000015,0.563062,31.131,0.603,63.055,122.293,1.9394655459519468,3.9283351000610325,0.294868991050132,-0.16150000320556,-0.108428117580178,0.749876,0.779429,0.77503
0.5841590154442439,0.3954850000000002,0.569766,28.359,0.613,63.055,120.382,1.9091586710015067,4.244931062449311,0.288878771251253,-0.158504703352279,-0.108016648532356,0.756897,0.78001,0.77963
0.5940598154253375,0.4021880000000002,0.576469,27.293,0.61,63.055,121.019,1.9192609626516535,4.434067343274832,0.284494361724321,-0.153441060207907,-0.105958154973209,0.761036,0.783089,0.781751
0.603960615406431,0.4088910000000002,0.583172,26.866,0.613,62.562,118.471,1.8936574917681661,4.409699992555646,0.271278479128977,-0.147745366964776,-0.105861301111791,0.764512,0.786051,0.786535
0.6138614153875245,0.41559400000000024,0.589875,26.227,0.603,62.562,118.471,1.8936574917681661,4.5171388264002745,0.257937749246854,-0.141552178890407,-0.103761548880999,0.768288,0.78657,0.791221
0.623762215368618,0.42229700000000026,0.596578,24.521,0.61,62.562,118.471,1.8936574917681661,4.8314098119978794,0.246798182328067,-0.133991226946572,-0.0976426981235937,0.774603,0.790813,0.797658
0.6336630153497115,0.42900000000000027,0.603281,22.815,0.617,62.069,116.985,1.884757286245952,5.127547666009204,0.23459267563751,-0.12657907696475,-0.0904760689311016,0.781722,0.792075,0.799454
0.6435638153308049,0.4357030000000002,0.609984,23.242,0.617,62.562,117.622,1.880086953741888,5.060752086739523,0.219210770548661,-0.118039947673246,-0.0799411560219909,0.787665,0.79269,0.802555
0.6534646153118984,0.4424060000000002,0.616687,24.094,0.624,63.547,115.074,1.8108486631941714,4.776043828339005,0.201448275067225,-0.110669801980048,-0.0644591273121738,0.786231,0.79335,0.806382
0.663366892362958,0.44911000000000034,0.623391,24.308,0.613,64.04,115.074,1.7969081823860085,4.733997038012177,0.174712756716237,-0.100843931592151,-0.053302771753407,0.790708,0.792462,0.807286
0.6732676923440514,0.45581300000000025,0.630094,23.455,0.617,63.547,115.074,1.8108486631941714,4.906160733319122,0.145037652139258,-0.0895810676064752,-0.0445087332552571,0.798721,0.792119,0.807018
0.6831684923251445,0.46251600000000004,0.636797,22.815,0.624,63.055,113.375,1.7980334628498928,4.969318430856892,0.121104825120346,-0.0825117313961749,-0.0387397930735575,0.794616,0.790756,0.805007
0.6930692923062379,0.46921899999999994,0.6435,23.881,0.617,62.069,113.8,1.8334434258647634,4.765294585653867,0.101886762441529,-0.0756525312119828,-0.031875902542064,0.802282,0.79301,0.80342
0.7029700922873314,0.47592199999999996,0.650203,25.374,0.624,61.577,111.677,1.81361547330984,4.401237487191614,0.0912835822226215,-0.0690549536850303,-0.0305023069026312,0.808428,0.795638,0.801487
0.7128708922684249,0.48262499999999997,0.656906,26.227,0.621,61.084,111.889,1.8317235282561717,4.266176078087467,0.0832800417595058,-0.0635480588675271,-0.0286679395510505,0.810787,0.797954,0.80186
0.7227716922495185,0.489328,0.663609,26.227,0.628,60.099,111.889,1.8617447877668514,4.266176078087467,0.0791705133732911,-0.059744694649547,-0.0271228384652562,0.817504,0.800397,0.803502
0.732672492230612,0.496031,0.670312,26.44,0.638,59.114,110.191,1.8640423588320874,4.167586989409985,0.0756143723789452,-0.0577242923570571,-0.0271487478409751,0.818571,0.801707,0.805866
0.7425747692816713,0.5027349999999999,0.677016,27.932,0.624,58.621,110.615,1.8869517749611913,3.960153229271087,0.0755034883844181,-0.0574638388818685,-0.0278860081605187,0.8205,0.80103,0.806876
0.7524755692627648,0.509438,0.683719,28.572,0.631,57.636,108.28,1.8786869317787493,3.7897242055158897,0.0748910692128523,-0.0580722413569768,-0.0283484121124469,0.82097,0.800913,0.808086
0.7623763692438583,0.516141,0.690422,28.785,0.628,56.651,108.704,1.9188363841768017,3.7764113253430605,0.0746646924813294,-0.0581736964495869,-0.0297405268289337,0.820487,0.800506,0.808176
0.7722771692249518,0.522844,0.697125,27.719,0.631,55.665,108.28,1.9452079403574958,3.9063458277715646,0.0749395907707489,-0.0579946758852766,-0.0308728453426285,0.820781,0.801027,0.809149
0.7821779692060454,0.529547,0.703828,27.293,0.638,55.173,106.581,1.931760100048937,3.9050672333565384,0.0768356443187321,-0.0584747103657328,-0.0313270190392708,0.821618,0.800988,0.807879
0.7920787691871389,0.53625,0.710531,28.146,0.628,54.68,107.006,1.956949524506218,3.80181908619342,0.0795016259298127,-0.0582476050136902,-0.0309813969609362,0.824044,0.802242,0.807902
0.8019795691682324,0.542953,0.717234,28.146,0.638,53.695,104.883,1.953310364093491,3.726390961415476,0.0819058467993928,-0.0581481979646463,-0.0308565729213013,0.82663,0.803613,0.808345
0.8118818462192917,0.549657,0.723938,27.932,0.621,52.71,105.52,2.001897173211914,3.7777459544608334,0.0838851854034335,-0.0583857376281719,-0.0307650588939077,0.828011,0.804544,0.808844
0.8217826462003852,0.55636,0.730641,26.866,0.624,52.217,105.095,2.012658712679779,3.9118216332911486,0.0848872769621236,-0.0587590132218034,-0.0310770092408479,0.828522,0.80532,0.810158
0.8316834461814787,0.563063,0.737344,26.866,0.628,51.724,103.609,2.003112674967133,3.8565100870989353,0.0848709041776951,-0.05913673054904,-0.0311167630439975,0.829509,0.805785,0.810828
0.8415842461625723,0.569766,0.744047,27.719,0.642,51.724,104.034,2.0113293635449696,3.753165698618276,0.084262163432452,-0.0592569291300376,-0.0311041236151148,0.830693,0.806366,0.811575
0.8514850461436658,0.576469,0.75075,27.932,0.653,52.217,101.91,1.9516632514315262,3.6485035085206934,0.0827645618703684,-0.058423549755986,-0.0311752821543391,0.831947,0.806849,0.81199
0.8613858461247593,0.583172,0.757453,27.719,0.663,52.217,102.76,1.9679414749985638,3.7072044446047836,0.0814591149374081,-0.0580592279052909,-0.0312645732686409,0.832417,0.807278,0.812332
0.8712866461058528,0.589875,0.764156,26.866,0.678,51.232,102.335,1.997482042473454,3.8090895555720983,0.0797897698376531,-0.0573861457995823,-0.0309944509184689,0.833516,0.807373,0.812112
0.8811874460869462,0.5965779999999999,0.770859,27.293,0.699,50.739,100.849,1.987603224344193,3.6950500128238013,0.0774956695263561,-0.0564047212159292,-0.0308891319408696,0.834336,0.807818,0.812378
0.8910882460680397,0.603281,0.777562,28.785,0.699,49.754,101.273,2.035474534710777,3.5182560361299284,0.0747007919255096,-0.0550691620834995,-0.0293011144142578,0.834373,0.807852,0.813117
0.9009905231190993,0.6099850000000001,0.784266,28.998,0.692,49.261,99.363,2.0170723290229593,3.4265466583902335,0.0708046015716271,-0.0532004761825225,-0.0272062343299691,0.83483,0.807681,0.814368
0.9108913231001927,0.616688,0.790969,28.785,0.642,49.261,100.212,2.0343070583219993,3.4813965607087027,0.0651370821600636,-0.0499855398777461,-0.0266327753852955,0.835539,0.807242,0.814612
0.9207921230812862,0.623391,0.797672,28.359,0.635,48.769,99.787,2.0461153601673194,3.518706583447935,0.0578887603914116,-0.0455673827377627,-0.0241145937851831,0.836279,0.806859,0.815373
0.9306929230623797,0.630094,0.804375,29.425,0.635,48.276,98.513,2.0406205982268624,3.3479354290569243,0.0482216900570603,-0.0399177211935717,-0.0212261783213802,0.837322,0.806065,0.815646
0.9405937230434731,0.636797,0.811078,31.344,0.628,47.784,98.938,2.070525698978738,3.156521184277693,0.0406533132184998,-0.0344197258524548,-0.0173918360325709,0.841235,0.806839,0.816194
0.9504945230245666,0.6435,0.817781,31.984,0.631,46.798,97.027,2.073315098935852,3.033610555277639,0.0335726822084676,-0.027856380523634,-0.0124676755800512,0.84157,0.805821,0.813216
0.9603953230056602,0.650203,0.824484,32.623,0.624,45.813,98.301,2.1457010018990244,3.0132421910921745,0.0258852590297874,-0.0208019611726149,-0.00858089383200149,0.847702,0.808494,0.81548
0.9702961229867537,0.656906,0.831187,33.476,0.603,44.828,97.239,2.1691576693138215,2.904737722547497,0.0170047424973237,-0.0131276822269624,-0.00556666618287905,0.849528,0.809438,0.814624
0.9801984000378132,0.6636100000000001,0.837891,36.248,0.578,43.35,95.966,2.213748558246828,2.647483999117193,0.0102203765675455,-0.00741428704426033,-0.00227504812743242,0.849213,0.809262,0.814157
0.9900992000189066,0.670313,0.844594,40.726,0.946,42.365,96.603,2.2802549274164994,2.3720227864263617,0.00438945894119444,-0.00282318238095033,0.000284284282439306,0.849191,0.808217,0.812566
1.0,0.677016,0.851297,45.63,1.395,40.887,94.267,2.305549441142661,2.065899627438089,0.00083661085203717,0.000233165803062838,0.00081424383980543,0.852456,0.809079,0.811298
