cardiac cycle [%],t abs [s],t [s],LVP [mmHg],ECG [mV],LAD Flow [ml/s],AoP [mmHg],AoP/Flow,Pao/PLV,rad strain,circ strain,long strain,tissue vol ischemic [ml],tissue vol border [ml],tissue vol remote [ml]
0.0,0.0,0.489328,27.506,1.12,13.793,45.647,3.3094323207424057,1.6595288300734385,0.000728723118120639,-0.000835858707147638,-0.0029497733003739,0.982726,0.91578,0.859959
0.008620523353091675,0.0067030000000000145,0.496031,27.293,0.567,12.808,45.859,3.580496564647096,1.680247682555967,0.00150288929878733,-0.0019475706563057,-0.00689420343051307,0.984349,0.916899,0.858278
0.01724104670618335,0.013406000000000029,0.502734,28.785,0.624,11.823,44.798,3.789055231328766,1.556296682299809,0.00263233705252038,-0.00299067719407087,-0.0104740533042433,0.983346,0.915969,0.856617
0.02586285612869952,0.02010999999999996,0.509438,31.77,0.631,9.853,45.647,4.632802192225718,1.4367957192319798,0.00319734402146382,-0.00382002819100731,-0.0137985923399595,0.979714,0.911862,0.856087
0.03448337948179119,0.026812999999999976,0.516141,37.954,0.624,7.882,44.161,5.60276579548338,1.1635400748274227,0.00354218196503095,-0.00405759449091257,-0.0169759217806584,0.977327,0.910054,0.856148
0.04310390283488287,0.03351599999999999,0.522844,39.659,0.617,6.897,45.01,6.5260258083224585,1.1349252376509746,0.00357517669105127,-0.00379393794421983,-0.0199577359926282,0.975732,0.911701,0.852239
0.05172442618797454,0.040219000000000005,0.529547,42.005,0.621,5.912,45.435,7.68521650879567,1.081656945601714,0.00367902462520939,-0.00343253647032912,-0.0225461320606718,0.975112,0.911785,0.851304
0.06034494954106622,0.04692200000000002,0.53625,45.843,0.621,3.941,44.586,11.313372240548084,0.9725803285125318,0.00337989264312834,-0.00306945140588826,-0.0254726965833805,0.972765,0.911615,0.85032
0.0689654728941579,0.053625000000000034,0.542953,49.894,0.624,0.986,46.072,46.72616632860041,0.9233976029181866,0.00347166031097119,-0.00287520789737261,-0.0285769980966056,0.970647,0.911732,0.848464
0.07758599624724957,0.06032800000000005,0.549656,55.651,0.628,-1.478,46.072,-31.171853856562926,0.8278737129611328,0.00361038984856165,-0.00320571868544279,-0.0311820417844542,0.969551,0.911864,0.847058
0.08620651960034124,0.06703100000000006,0.556359,56.077,0.624,-1.478,48.62,-32.895805142083894,0.8670221302851436,0.00414165548078291,-0.003984128364552,-0.0333859881302146,0.967195,0.911817,0.846258
0.09482704295343278,0.07373399999999997,0.563062,57.783,0.635,0.0,51.592,0.0,0.8928577609331464,0.00523715603756744,-0.00518544018703907,-0.0351263537549069,0.963824,0.910587,0.845285
0.10344885237594909,0.08043800000000001,0.569766,60.342,0.635,3.449,53.29,15.45085532038272,0.8831328096516523,0.00699464527226576,-0.00686804126983984,-0.0366271504824754,0.960845,0.90859,0.844076
0.11206937572904076,0.08714100000000002,0.576469,62.9,0.635,5.912,56.688,9.588633288227335,0.9012400635930048,0.00871640648196114,-0.00895993029948434,-0.0379792931400624,0.957285,0.907653,0.84352
0.12068989908213244,0.09384400000000004,0.583172,66.525,0.638,6.404,57.537,8.984540911930043,0.8648928974069897,0.0112513332988404,-0.0114242259273715,-0.0390137356136071,0.954873,0.906381,0.841719
0.12931042243522411,0.10054700000000005,0.589875,64.819,0.642,6.897,59.872,8.6808757430767,0.9236797852481525,0.0136633112253521,-0.0141453836827196,-0.039979834157174,0.952018,0.904832,0.840288
0.1379309457883158,0.10725000000000007,0.596578,65.033,0.646,7.389,61.358,8.303965353904452,0.9434902280380729,0.016289848585322,-0.0169635224177439,-0.0406727533235859,0.949992,0.90417,0.839136
0.14655146914140732,0.11395299999999997,0.603281,66.525,0.642,7.882,61.358,7.784572443542248,0.9223299511461855,0.0185645103446704,-0.020017923284956,-0.0414792340835354,0.945992,0.902925,0.837395
0.155171992494499,0.12065599999999999,0.609984,68.018,0.649,8.867,63.269,7.135333258148189,0.9301802464053632,0.021436159599244,-0.0227968543669252,-0.042091864505479,0.944647,0.902568,0.83648
0.16379251584759066,0.127359,0.616687,70.363,0.649,9.853,62.845,6.378260428295951,0.8931540724528516,0.0242752164424875,-0.0258059809992821,-0.0429234202650669,0.942597,0.901911,0.835192
0.17241432527010697,0.13406300000000004,0.623391,67.591,0.649,10.345,65.18,6.300628322861286,0.964329570504949,0.0269437443525463,-0.0289128475867213,-0.0436239256131769,0.940691,0.900104,0.834054
0.18103484862319866,0.14076600000000006,0.630094,67.591,0.66,10.838,66.029,6.092360214061635,0.9768904144042846,0.0296199407051867,-0.0321046450331577,-0.0444805075884195,0.937929,0.900132,0.833317
0.18965537197629018,0.14746899999999996,0.636797,69.297,0.653,11.33,65.817,5.809090909090909,0.9497813758171348,0.0317352580815014,-0.0352781678589928,-0.0454103059075581,0.934671,0.899121,0.832245
0.19827589532938186,0.15417199999999998,0.6435,70.576,0.66,11.823,67.516,5.7105641546138886,0.9566424846973477,0.0338120249075194,-0.0387803304318319,-0.0464001552035173,0.933534,0.898395,0.830152
0.20689641868247355,0.160875,0.650203,72.495,0.66,12.808,66.879,5.221658338538414,0.9225325884543761,0.0360295857132364,-0.0419320803977024,-0.0471267386336611,0.930642,0.898385,0.829087
0.2155169420355652,0.167578,0.656906,69.297,0.66,13.793,68.577,4.971869789023418,0.9896099398242348,0.0388132643774067,-0.0448002365102152,-0.047774443402752,0.92861,0.897561,0.827708
0.2241374653886569,0.17428100000000002,0.663609,69.51,0.667,14.286,69.214,4.8448831023379535,0.9957416199108041,0.0414157506452467,-0.0475952912136961,-0.0482800692689052,0.927401,0.896893,0.826641
0.23275798874174858,0.18098400000000003,0.670312,71.216,0.663,14.286,69.002,4.830043399132017,0.9689114805661649,0.0443820843136559,-0.0501544911983687,-0.0488789614938767,0.926211,0.896422,0.82521
0.24137979816426475,0.18768799999999997,0.677016,72.709,0.667,14.779,70.488,4.769470194194465,0.9694535752107717,0.0470706189458046,-0.0527971624003924,-0.0496953136470294,0.925045,0.895073,0.823964
0.2500003215173564,0.19439099999999998,0.683719,73.988,0.663,14.779,69.426,4.697611475742608,0.9383413526517814,0.049449231245833,-0.0554727914538443,-0.0503785665403889,0.923096,0.895075,0.823143
0.25862084487044806,0.201094,0.690422,70.576,0.667,14.779,70.913,4.798227214290547,1.004774994332351,0.0517879558885748,-0.0580034527375443,-0.0509470347141091,0.921646,0.894279,0.821792
0.2672413682235398,0.207797,0.697125,70.79,0.667,14.286,71.337,4.993490130197396,1.0077270800960587,0.053587261643956,-0.0605409414965597,-0.0517105681480678,0.919666,0.893957,0.821091
0.27586189157663144,0.21450000000000002,0.703828,72.282,0.656,13.301,70.7,5.315389820314262,0.9781134999031572,0.0555490953484495,-0.062965375240355,-0.0522461289582297,0.917773,0.893799,0.819542
0.2844824149297231,0.22120300000000004,0.710531,73.561,0.663,13.301,71.974,5.411172092323886,0.978426068161118,0.0576042637686334,-0.0651276638875819,-0.0524688396169807,0.915959,0.89313,0.819269
0.2931029382828148,0.22790600000000005,0.717234,74.414,0.667,12.808,70.913,5.536617738913179,0.9529524014298384,0.0596116085194825,-0.0673506778521577,-0.052924639737075,0.91479,0.892849,0.817808
0.301724747705331,0.23460999999999999,0.723938,70.576,0.656,12.316,71.974,5.843942838583955,1.0198084334618003,0.0613894765874256,-0.0694265826782045,-0.0535078049830421,0.913549,0.892562,0.817508
0.31034527105842263,0.241313,0.730641,71.003,0.663,11.823,71.762,6.069694662945107,1.0106896891680632,0.0630040079074227,-0.0713102671005978,-0.0540613508107786,0.911081,0.892785,0.817882
0.3189657944115143,0.24801600000000001,0.737344,72.495,0.653,12.316,71.125,5.775008119519324,0.9811021449755155,0.064591969115166,-0.0731786596798067,-0.0547858619510017,0.909344,0.891534,0.816639
0.327586317764606,0.25471900000000003,0.744047,73.561,0.66,12.808,72.186,5.636008744534666,0.9813080300702818,0.066046811770335,-0.0749622203196081,-0.0557215547550554,0.90782,0.891116,0.815682
0.3362068411176978,0.26142200000000015,0.75075,73.775,0.653,12.808,70.913,5.536617738913179,0.9612063707217892,0.0674523633748359,-0.0764014050514196,-0.0565305054852157,0.905916,0.89055,0.815476
0.3448273644707895,0.26812500000000017,0.757453,69.937,0.649,12.808,71.974,5.619456589631481,1.029126213592233,0.0688904563277227,-0.0779786520785222,-0.0572154780568845,0.904888,0.890409,0.814965
0.35344788782388115,0.2748280000000002,0.764156,70.363,0.646,12.808,71.549,5.586274203622736,1.0168554495970894,0.0704698104729876,-0.0792916811757108,-0.0578103018702156,0.903826,0.890074,0.814165
0.3620684111769727,0.2815310000000001,0.770859,72.069,0.631,12.808,70.913,5.536617738913179,0.9839598162871691,0.0715807504812213,-0.0806172392134504,-0.0584060149632103,0.902419,0.889442,0.813698
0.37068893453006435,0.2882340000000001,0.777562,72.922,0.621,12.316,71.762,5.826729457616109,0.9840925920846932,0.0731572824905498,-0.081728028609084,-0.0587793085185922,0.901813,0.889516,0.813532
0.3793107439525808,0.29493800000000026,0.784266,72.922,0.61,12.316,70.7,5.740500162390386,0.9695290858725762,0.074169403710933,-0.0827668784684579,-0.05921654887283,0.900781,0.88954,0.813389
0.38793126730567234,0.30164100000000016,0.790969,69.297,0.599,12.316,71.549,5.809434881455018,1.0324977993275324,0.0757913089995317,-0.0835135044456517,-0.05957764592417,0.899457,0.888792,0.812842
0.396551790658764,0.3083440000000002,0.797672,69.937,0.592,12.316,70.913,5.757794738551477,1.0139554170181735,0.0768741931812079,-0.0842166118774289,-0.0600727487487644,0.898092,0.887749,0.81175
0.4051723140118557,0.3150470000000002,0.804375,71.003,0.581,11.823,70.063,5.9259917110716405,0.9867611227694605,0.0781446739291709,-0.0847134519488337,-0.0604477500009473,0.897638,0.887251,0.811645
0.4137928373649472,0.3217500000000001,0.811078,71.003,0.581,11.823,70.488,5.961938594265415,0.992746785347098,0.0786003877008247,-0.085039935806562,-0.0611404448318504,0.896934,0.88675,0.811279
0.4224133607180389,0.3284530000000001,0.817781,70.576,0.578,11.33,69.002,6.090203000882612,0.9776978009521651,0.0786119006521809,-0.0851756640824136,-0.0618920682432477,0.895785,0.886327,0.81136
0.4310338840711306,0.3351560000000001,0.824484,66.525,0.585,10.838,69.639,6.42544749953866,1.0468094701240134,0.0787002137057062,-0.0852809619295719,-0.0625261893358196,0.893826,0.885338,0.811181
0.43965440742422224,0.34185900000000013,0.831187,67.378,0.588,10.345,68.365,6.608506524891251,1.014648698388198,0.0787595969915357,-0.0854671717961858,-0.0631304085060312,0.894222,0.885186,0.812305
0.4482762168467387,0.3485630000000003,0.837891,67.378,0.581,9.853,66.879,6.787678879529078,0.9925940217875272,0.0778669449388568,-0.085312084929631,-0.0636394408939157,0.892512,0.883656,0.812974
0.45689674019983023,0.3552660000000002,0.844594,66.099,0.585,8.867,66.879,7.542460809743995,1.011800481096537,0.0772040442991889,-0.0851544369474965,-0.063915388384946,0.892332,0.882685,0.813031
0.4655172635529218,0.3619690000000001,0.851297,64.18,0.588,8.867,64.755,7.3029209428216975,1.0089591773138047,0.0766656892216231,-0.0847136977487822,-0.0636819597763092,0.89356,0.88279,0.813869
0.47413778690601344,0.3686720000000001,0.858,59.276,0.588,7.882,64.331,8.161760974371987,1.0852790336729874,0.0753420223342873,-0.0838010902310468,-0.0636119301640722,0.893395,0.88273,0.815428
0.4827583102591051,0.3753750000000001,0.864703,58.636,0.588,6.404,61.995,9.680668332292317,1.057285626577529,0.0743665325191957,-0.0824832671194607,-0.0636807422344178,0.894275,0.882803,0.815976
0.4913788336121968,0.38207800000000014,0.871406,56.291,0.588,4.926,60.085,12.1975233455136,1.067399761951289,0.0728277138451273,-0.0812948234892388,-0.0641863149137774,0.895547,0.88272,0.816487
0.49999935696528847,0.38878100000000015,0.878109,52.453,0.592,4.434,59.872,13.502931889941362,1.1414409090042514,0.0718243494724725,-0.079360217604018,-0.0644459929845986,0.897413,0.883615,0.816656
0.5086198803183801,0.39548400000000017,0.884812,48.828,0.592,7.882,60.721,7.703755392032479,1.2435692635373146,0.0712514754020816,-0.0779890484209349,-0.0646431249900753,0.897496,0.884346,0.817279
0.5172416897408963,0.4021880000000001,0.891516,43.711,0.596,12.808,63.482,4.956433479075578,1.4523117750680608,0.0707977710694921,-0.0774576686633858,-0.0644489775680689,0.897423,0.884442,0.81736
0.525862213093988,0.4088910000000001,0.898219,43.711,0.596,15.764,62.42,3.95965490992134,1.4280158312552904,0.0705519972425098,-0.0765929965678886,-0.0639205047630117,0.898531,0.885762,0.818287
0.5344827364470797,0.41559400000000013,0.904922,42.005,0.592,16.749,61.571,3.6761000656755627,1.465801690274967,0.0708807480090374,-0.0754914540043831,-0.0627587501708541,0.898479,0.8861,0.818441
0.5431032598001714,0.42229700000000014,0.911625,39.02,0.599,17.734,61.995,3.4958272245404305,1.5888006150691951,0.0707817196626809,-0.074348896575158,-0.0616420699878303,0.899606,0.88664,0.818809
0.551723783153263,0.42900000000000016,0.918328,36.035,0.599,18.227,60.509,3.319745432599989,1.6791730262245042,0.0711934554985694,-0.0731759662454049,-0.0604081679044234,0.900013,0.887657,0.819192
0.5603443065063547,0.4357030000000002,0.925031,32.197,0.599,18.72,61.358,3.2776709401709403,1.90570550051247,0.071337952392669,-0.0715130914656399,-0.0591303493793886,0.89969,0.887454,0.81951
0.5689648298594464,0.4424060000000002,0.931734,33.263,0.603,19.212,60.085,3.1274724130751617,1.8063614226016897,0.0718393017632741,-0.070359368878383,-0.0574185077335103,0.900194,0.888258,0.820035
0.5775853532125379,0.4491090000000001,0.938437,31.984,0.599,19.212,59.448,3.094316052467208,1.858679339669835,0.0728725433239528,-0.0692241955087407,-0.0556882731645355,0.900368,0.889199,0.819906
0.586207162635054,0.455813,0.945141,29.212,0.603,19.705,60.085,3.049226084750064,2.056860194440641,0.0738841045668086,-0.0680427418800426,-0.0538473371892018,0.89921,0.889651,0.819734
0.5948276859881456,0.4625159999999999,0.951844,26.653,0.606,20.197,58.598,2.9013219785116604,2.19855175777586,0.0753464101187452,-0.0673651570947147,-0.0519524269570937,0.899084,0.890917,0.820696
0.6034482093412372,0.46921899999999994,0.958547,23.668,0.603,21.183,59.448,2.806401359580796,2.511745817137063,0.0764319754105184,-0.0667230855711277,-0.0502131387419647,0.898778,0.891975,0.820949
0.6120687326943289,0.47592199999999996,0.96525,25.8,0.603,21.183,57.961,2.736203559458056,2.246550387596899,0.0782691319437251,-0.0659744689797251,-0.0483715221261301,0.898956,0.892869,0.820819
0.6206892560474203,0.48262499999999975,0.971953,24.734,0.606,21.675,57.749,2.6643137254901963,2.3348022964340585,0.0798352799625939,-0.0656891541213429,-0.0467163633564418,0.899282,0.894325,0.821218
0.6293097794005119,0.48932799999999965,0.978656,22.389,0.606,22.168,58.386,2.6337964633706243,2.6077984724641565,0.0816859721929003,-0.065453006505876,-0.0449494249338348,0.899587,0.895291,0.820905
0.6379303027536035,0.49603099999999967,0.985359,20.683,0.61,22.168,56.9,2.5667629014796103,2.7510515882608906,0.0831859508341657,-0.0654104056551986,-0.0433725210731833,0.900484,0.89582,0.821234
0.6465508261066952,0.5027339999999997,0.992062,18.764,0.61,22.66,57.749,2.5484995586937336,3.077648688978896,0.0843774784262648,-0.0654560349365295,-0.0416930998019804,0.902693,0.895651,0.822033
0.6551726355292113,0.5094379999999996,0.998766,21.536,0.613,22.66,56.263,2.482921447484554,2.6125092867756314,0.0849588643507276,-0.0655126557944405,-0.0395344739677192,0.903486,0.894852,0.822788
0.663793158882303,0.5161409999999995,1.005469,20.896,0.606,22.168,56.051,2.5284644532659692,2.682379402756508,0.0838291844019378,-0.0651058489328067,-0.0372107693296535,0.906643,0.895908,0.824355
0.6724136822353948,0.5228439999999996,1.012172,18.764,0.61,22.168,56.688,2.557199566943342,3.02110424216585,0.0819787048120385,-0.0641049079491564,-0.0345389841349317,0.911468,0.89736,0.826726
0.6810342055884863,0.5295469999999995,1.018875,17.485,0.613,22.168,55.201,2.4901208949837605,3.1570488990563343,0.0783555516156297,-0.0629572393303039,-0.0315644388024797,0.915928,0.89905,0.83007
0.6896547289415781,0.5362499999999997,1.025578,16.632,0.617,22.66,56.051,2.4735657546337158,3.370069745069745,0.0723658031463704,-0.0612855640145367,-0.0286532756118605,0.925187,0.902591,0.835558
0.6982752522946696,0.5429529999999996,1.032281,20.256,0.613,21.675,54.564,2.517370242214533,2.6937203791469195,0.0655050168839847,-0.0593109552244488,-0.0257505701391087,0.926674,0.903176,0.839233
0.7068957756477612,0.5496559999999995,1.038984,19.83,0.606,21.675,54.352,2.5075893886966547,2.740897629853757,0.0583026648768119,-0.0562769091486435,-0.0230377831301426,0.93122,0.904322,0.844336
0.715516299000853,0.5563589999999996,1.045687,17.911,0.613,21.183,54.989,2.5959023745456262,3.0701245044944443,0.0498923479028146,-0.0533753915053386,-0.0206104491599522,0.935592,0.904808,0.847311
0.7241381084233692,0.5630629999999996,1.052391,17.058,0.613,20.69,53.503,2.5859352344127595,3.1365341775120177,0.0431546934856452,-0.0502382494372673,-0.0182557778206201,0.939902,0.903056,0.849964
0.7327586317764608,0.5697659999999996,1.059094,16.845,0.613,20.197,54.352,2.6910927365450314,3.226595428910656,0.037319784809395,-0.0464762544256507,-0.0165135246966271,0.944008,0.902149,0.853637
0.7413791551295527,0.5764689999999997,1.065797,20.683,0.617,19.705,53.078,2.69363105810708,2.5662621476574965,0.032053668660787,-0.0429159694113596,-0.0150413617887593,0.946686,0.902029,0.85559
0.7499996784826441,0.5831719999999996,1.0725,20.256,0.613,20.197,52.866,2.617517453087092,2.6098933649289098,0.0276982965267693,-0.0399482061691518,-0.0142362461991618,0.949657,0.903135,0.857125
0.7586202018357356,0.5898749999999995,1.079203,18.551,0.621,21.183,53.29,2.515696549119577,2.872621422025767,0.0242597392279924,-0.0371905686123079,-0.0140642159545221,0.952656,0.903981,0.857815
0.7672407251888275,0.5965779999999996,1.085906,17.911,0.621,22.168,52.017,2.346490436665464,2.9041929540505835,0.0217621433918433,-0.0350490280527621,-0.0140916657706549,0.954684,0.905457,0.859272
0.7758612485419191,0.6032809999999995,1.092609,17.911,0.621,22.66,52.866,2.333009708737864,2.9515939925185637,0.0195083425837334,-0.0332360570456024,-0.0144670233630427,0.957354,0.906841,0.860133
0.7844817718950109,0.6099839999999996,1.099312,21.962,0.624,23.646,51.38,2.172883362936649,2.339495492213824,0.0179882768370519,-0.031905464069306,-0.015038923350365,0.959042,0.907046,0.860175
0.7931035813175272,0.6166879999999997,1.106016,21.109,0.635,24.138,51.38,2.1285939183030904,2.4340328769719077,0.0170515341019492,-0.0310503304631497,-0.015334337938043,0.95983,0.907198,0.860508
0.8017241046706187,0.6233909999999996,1.112719,19.617,0.653,24.631,51.804,2.103203280418984,2.6407707600550543,0.0164786936225128,-0.0307246392433006,-0.015351626114425,0.960849,0.906976,0.861204
0.8103446280237102,0.6300939999999995,1.119422,19.19,0.681,25.123,50.53,2.011304382438403,2.6331422615945805,0.0161584789114642,-0.0306458894785964,-0.0149953750755001,0.962266,0.907082,0.861343
0.818965151376802,0.6367969999999996,1.126125,19.19,0.685,25.123,51.167,2.036659634597779,2.666336633663366,0.0161075018687464,-0.0307094135278243,-0.0144399338740563,0.96225,0.907154,0.861794
0.8275856747298936,0.6434999999999995,1.132828,22.389,0.696,24.631,49.893,2.0256181235029027,2.228460404663004,0.0160920444294706,-0.0307530363536276,-0.0138607867700777,0.962608,0.906842,0.862601
0.8362061980829854,0.6502029999999996,1.139531,20.896,0.685,23.646,49.893,2.109997462572951,2.3876818529862174,0.0154387873231001,-0.0307835385665906,-0.0136464983286119,0.963463,0.907192,0.862284
0.844826721436077,0.6569059999999995,1.146234,19.617,0.667,23.153,50.318,2.173282080076016,2.565020135596676,0.0145285175825069,-0.0307949723676235,-0.0135641130942761,0.964185,0.90653,0.862136
0.8534485308585933,0.6636099999999996,1.152938,19.404,0.628,22.66,49.044,2.164342453662842,2.52752009894867,0.0136467294441409,-0.0307955242033168,-0.013718309189557,0.964236,0.907795,0.862636
0.8620690542116848,0.6703129999999995,1.159641,19.617,0.613,21.675,49.893,2.3018685121107265,2.5433552530968035,0.0127140127498789,-0.0306217942488835,-0.0140345538226534,0.962833,0.907477,0.863891
0.8706895775647766,0.6770159999999996,1.166344,22.602,0.613,21.675,48.62,2.243137254901961,2.151137067516149,0.011885304248556,-0.030217987560133,-0.0141639797197688,0.963777,0.90785,0.864274
0.8793101009178681,0.6837189999999995,1.173047,20.896,0.61,21.183,48.832,2.3052447717509326,2.336906584992343,0.0113759971934758,-0.029463232196279,-0.0139260015580017,0.963732,0.907594,0.864824
0.8879306242709599,0.6904219999999996,1.17975,19.83,0.621,21.183,49.257,2.325308030024076,2.4839636913767023,0.0102855262844702,-0.0282271409695489,-0.0133781941878087,0.965729,0.90767,0.865616
0.8965511476240515,0.6971249999999996,1.186453,20.256,0.617,21.183,47.983,2.26516546287117,2.368828988941548,0.00899225237067891,-0.0263214635371197,-0.0124403497212864,0.966435,0.907065,0.865922
0.9051716709771434,0.7038279999999997,1.193156,21.109,0.621,21.183,48.832,2.3052447717509326,2.31332606944905,0.00733889862267319,-0.0240879807587112,-0.0111989134142035,0.966001,0.906803,0.865125
0.9137921943302348,0.7105309999999996,1.199859,23.881,0.621,20.69,47.558,2.298598356694055,1.991457644152255,0.00509228423191125,-0.0212848297029857,-0.0097191148359263,0.968639,0.908309,0.866727
0.9224140037527512,0.7172349999999996,1.206563,21.749,0.621,19.705,47.983,2.435067241816798,2.2062163777644948,0.00299104771768899,-0.0181411822741012,-0.00784939510856631,0.969102,0.907659,0.865496
0.9310345271058427,0.7239379999999995,1.213266,21.109,0.628,18.72,48.195,2.574519230769231,2.2831493675683356,0.00176622756069121,-0.0147757075659251,-0.00585066880555432,0.970021,0.908286,0.865354
0.9396550504589345,0.7306409999999997,1.219969,21.962,0.624,18.227,46.921,2.5742579689471663,2.136462981513523,0.000538791050720787,-0.0115059313540545,-0.0040111584908462,0.97265,0.909267,0.864935
0.948275573812026,0.7373439999999996,1.226672,23.028,0.624,17.734,47.983,2.7057065523852484,2.083680736494702,-1.65015649822339e-05,-0.00830181728806361,-0.00205104441548454,0.973848,0.909559,0.863862
0.9568960971651178,0.7440469999999997,1.233375,25.374,0.628,17.242,46.496,2.6966709198468855,1.8324268936706867,-0.000158553464182747,-0.0055836763539597,-0.000297879748926054,0.975512,0.910302,0.864205
0.9655166205182094,0.7507499999999996,1.240078,22.602,0.599,16.749,47.346,2.826795629589826,2.0947703743031587,-0.00044547215916165,-0.00335680172410468,0.00118615289532182,0.977362,0.911185,0.863559
0.9741371438713009,0.7574529999999995,1.246781,22.175,0.596,16.256,47.133,2.899421751968504,2.125501691093574,-0.000672260924313861,-0.00152411720619392,0.0022243264139911,0.977562,0.911439,0.862975
0.9827576672243924,0.7641559999999994,1.253484,23.242,0.892,15.764,46.072,2.922608475006344,1.9822734704414422,-0.000321280056322432,-0.000234605255379242,0.00279668343012033,0.977594,0.911949,0.863112
0.9913794766469085,0.7708599999999992,1.260188,24.521,1.217,15.271,46.921,3.072555824765896,1.913502711961176,0.000153606418405663,0.000439201937822258,0.00261555023957593,0.977504,0.911906,0.862747
1.0,0.7775629999999991,1.266891,26.653,1.392,14.779,45.435,3.0742946072129373,1.704686151652722,0.000469553773068057,0.000343056164694059,0.00106360937180546,0.980217,0.912929,0.861722
