cardiac cycle [%],t abs [s],t [s],LVP [mmHg],ECG [mV],LAD Flow [ml/s],AoP [mmHg],rad strain,circ strain,long strain,tissue vol ischemic [ml],tissue vol border [ml],tissue vol remote [ml],Unnamed: 13
0.0,0.0,0.260308,12.58,0.953,30.05,52.017,0.0,0.0,0.0,1.166228,1.087924,0.922934,
0.004672659382168515,0.002479000000000009,0.262787,12.154,0.824,30.05,51.38,0.00173425166985226,-0.000182866325317948,-0.00126126772009156,1.16451,1.088575,0.923894,
0.00934531876433703,0.004958000000000018,0.265266,13.006,0.728,30.05,51.38,0.00323938951377823,-0.00027164351869687,-0.00227080402846161,1.164871,1.088265,0.921801,
0.014017978146505546,0.007437000000000027,0.267745,12.793,0.706,30.05,50.53,0.00409429956814276,-0.000168189835405099,-0.00292947772147681,1.163268,1.090687,0.923274,
0.018692522425560725,0.00991700000000001,0.270225,14.925,0.706,29.557,50.955,0.00432044298118129,0.000138824325900832,-0.00375042668921052,1.161647,1.091274,0.923932,
0.02336518180772924,0.012396000000000018,0.272704,16.844,0.699,29.557,51.592,0.00569077686205368,0.000988434460749555,-0.00426856209320139,1.160968,1.092018,0.924031,
0.028037841189897755,0.014875000000000027,0.275183,18.763,0.688,29.064,52.017,0.00564306618720453,0.00219115628919479,-0.0042836275294115,1.160508,1.093513,0.923631,
0.03271050057206627,0.017354000000000036,0.277662,20.682,0.681,29.064,52.229,0.0053827931927896,0.00388580048357356,-0.00360147916701956,1.161585,1.093505,0.923069,
0.03738315995423468,0.01983299999999999,0.280141,22.175,0.653,28.572,51.804,0.00374438546307503,0.00577735302345904,-0.00405161177399786,1.15924,1.093027,0.92105,
0.0420558193364032,0.022312,0.28262,24.52,0.631,28.572,51.804,0.00254366983349476,0.00705713150992096,-0.00389764064636944,1.157995,1.092608,0.919455,
0.04672847871857171,0.024791000000000007,0.285099,25.16,0.61,28.572,50.955,0.00112843579432426,0.00854583573395154,-0.0031666295283151,1.156718,1.092604,0.918816,
0.05140113810074023,0.027270000000000016,0.287578,29.211,0.613,28.079,51.38,0.000501989246630722,0.0101261238689993,-0.00216087826167881,1.156623,1.092568,0.918884,
0.056075682379795405,0.02975,0.290058,31.77,0.613,27.587,51.592,-0.000412720953605583,0.0119317278181149,-0.00226629326393738,1.15554,1.090745,0.917456,
0.06074834176196392,0.03222900000000001,0.292537,34.968,0.621,26.601,52.229,-0.0012637694471932,0.0134028756554122,-0.00186564253370829,1.155019,1.090577,0.916499,
0.06542100114413243,0.03470800000000002,0.295016,37.313,0.624,26.109,52.229,-0.00194768738161718,0.0146212857537665,-0.00149040619123629,1.156403,1.0907,0.914933,
0.07009366052630095,0.037187000000000026,0.297495,39.659,0.613,25.123,52.017,-0.00223667769834501,0.0151098583152066,-0.000542608097181903,1.153309,1.09139,0.91397,
0.07476631990846946,0.039666000000000035,0.299974,42.217,0.599,24.631,52.229,-0.00302658068670633,0.0161075330261997,-0.000203960779328547,1.153546,1.091109,0.912466,
0.07943897929063798,0.042145000000000044,0.302453,44.776,0.585,23.646,52.654,-0.0037049603107582,0.0166892543020713,4.62519643033704e-05,1.152136,1.091023,0.910443,
0.0841116386728064,0.044624,0.304932,47.974,0.596,22.168,54.352,-0.00366944807939116,0.017174310896555,6.33169098935241e-05,1.150577,1.091061,0.910346,
0.08878429805497491,0.047103000000000006,0.307411,50.32,0.599,21.183,56.051,-0.00432109516292484,0.0172163182383138,-0.000537628554560566,1.147971,1.090615,0.909831,
0.09345884233403019,0.049583000000000044,0.309891,55.011,0.613,20.197,58.386,-0.00480356230018962,0.017024194762117,-0.00175458151049257,1.148911,1.092965,0.909328,
0.09813150171619861,0.052062,0.31237,55.65,0.606,18.72,59.448,-0.00507670925318457,0.016688746752987,-0.00323275438048715,1.145243,1.0927,0.909634,
0.10280416109836713,0.054541000000000006,0.314849,57.356,0.599,17.734,60.934,-0.00560626211950825,0.0160159454433586,-0.00473831782108589,1.142952,1.092454,0.907424,
0.10747682048053564,0.057020000000000015,0.317328,59.062,0.588,16.256,62.208,-0.00614330852545421,0.0147420960476118,-0.00609127135561299,1.142704,1.091953,0.905249,
0.11214947986270415,0.059499000000000024,0.319807,60.768,0.574,15.764,63.057,-0.00599321537871762,0.0134454423331687,-0.00749623738319772,1.142732,1.091344,0.90469,
0.11682213924487267,0.06197800000000003,0.322286,62.473,0.592,14.779,64.755,-0.00497305280809855,0.0120430906282062,-0.00855307447304434,1.142765,1.091224,0.903869,
0.12149479862704118,0.06445700000000004,0.324765,63.753,0.599,13.793,65.817,-0.00376962213784078,0.00980171853481945,-0.00910690740926725,1.139905,1.090835,0.902274,
0.12616934290609635,0.06693700000000002,0.327245,65.458,0.617,13.301,67.516,-0.00217871645786983,0.00846337499313312,-0.0103157846786316,1.138603,1.090318,0.900872,
0.13084200228826487,0.06941600000000003,0.329724,65.245,0.599,13.301,67.94,0.000462752756971355,0.00662145114388931,-0.0113758654607515,1.136591,1.091177,0.900529,
0.13551466167043338,0.07189500000000004,0.332203,65.885,0.592,13.301,68.365,0.00302302993401855,0.00468211507975282,-0.0131023867989842,1.135763,1.091347,0.901014,
0.1401873210526018,0.074374,0.334682,63.966,0.578,13.301,68.365,0.00514669522116382,0.00250687331124136,-0.0142946148094617,1.133777,1.092237,0.899531,
0.1448599804347703,0.076853,0.337161,65.672,0.578,13.301,69.214,0.00667406534717202,0.0002635177374539,-0.0153010177956967,1.131618,1.093037,0.898932,
0.14953263981693882,0.07933200000000001,0.33964,66.098,0.592,13.793,70.063,0.00830198865806297,-0.00185841731723113,-0.0172602707443276,1.129475,1.0928,0.898549,
0.15420529919910736,0.08181100000000002,0.342119,66.525,0.603,14.286,71.125,0.0100651333190782,-0.0042860246884847,-0.019279357856196,1.126593,1.092266,0.896701,
0.15887795858127587,0.08429000000000003,0.344598,66.525,0.606,14.779,71.125,0.0117496603937475,-0.00662653696606872,-0.0213480598966668,1.123718,1.091387,0.895472,
0.16355250286033104,0.08677000000000001,0.347078,66.311,0.596,14.779,71.125,0.0132998152557829,-0.00908980577838598,-0.02372476757318,1.12111,1.09248,0.895621,
0.16822516224249956,0.08924900000000002,0.349557,66.525,0.581,15.764,71.337,0.0147844531747666,-0.0129014805366371,-0.0258463136017186,1.118636,1.093239,0.896591,
0.17289782162466807,0.09172800000000003,0.352036,65.672,0.578,15.764,70.913,0.0158185063277816,-0.016449930754573,-0.0280330186027177,1.115377,1.093912,0.895763,
0.1775704810068366,0.09420700000000004,0.354515,67.164,0.581,16.749,71.549,0.0174672485237806,-0.0188164201550467,-0.0305565768651056,1.111679,1.094436,0.895178,
0.182243140389005,0.096686,0.356994,67.377,0.588,16.749,71.974,0.0191517595019178,-0.0212881987098324,-0.03251770957487,1.10854,1.093887,0.893967,
0.1869157997711735,0.099165,0.359473,69.51,0.606,17.242,72.823,0.021328936491554,-0.0242905864190607,-0.0345429221107289,1.105333,1.095228,0.893368,
0.19158845915334202,0.10164400000000001,0.361952,68.87,0.61,17.734,72.399,0.0236847992226385,-0.0273163577157337,-0.0367113093042585,1.102206,1.093293,0.892856,
0.19626111853551054,0.10412300000000002,0.364431,68.657,0.596,18.227,72.399,0.0256281833474129,-0.0301633209263763,-0.0386411785330047,1.100675,1.093075,0.892911,
0.20093566281456574,0.106603,0.366911,68.657,0.578,18.72,71.974,0.0275355313936504,-0.0335007092666735,-0.0394797664535797,1.099974,1.090652,0.891569,
0.20560832219673425,0.10908200000000001,0.36939,69.083,0.567,19.212,72.186,0.0289577681639959,-0.0367624844983121,-0.0408953975939404,1.096668,1.092276,0.890915,
0.21028098157890276,0.11156100000000002,0.371869,69.51,0.588,19.705,72.399,0.0306152096325226,-0.0400428999625029,-0.0424016007873468,1.094721,1.092227,0.890392,
0.21495364096107128,0.11404000000000003,0.374348,69.723,0.592,20.69,72.399,0.0317581762024063,-0.0432883613331115,-0.0437583947494205,1.090803,1.093384,0.889734,
0.2196263003432398,0.11651900000000004,0.376827,71.215,0.61,20.69,73.036,0.0330551668830175,-0.0458407971699226,-0.044978060833169,1.089283,1.095254,0.890169,
0.2242989597254082,0.11899799999999999,0.379306,69.51,0.599,21.183,72.399,0.0353807500915601,-0.0481517827465396,-0.0458809963374535,1.086395,1.095537,0.88969,
0.2289716191075767,0.121477,0.381785,69.51,0.596,21.183,72.399,0.0386471881940766,-0.0504539955646749,-0.046949056224791,1.08483,1.093097,0.888489,
0.23364427848974523,0.12395600000000001,0.384264,68.23,0.578,21.675,71.762,0.0417818917084092,-0.0528982788612651,-0.0483552060757395,1.083218,1.091426,0.88751,
0.2383188227688004,0.126436,0.386744,68.657,0.574,21.675,71.974,0.0438095149647644,-0.055376045580594,-0.0496978840760079,1.080108,1.091801,0.886269,
0.2429914821509689,0.128915,0.389223,68.657,0.588,21.675,72.399,0.0458938414053259,-0.0579045045804387,-0.0511480835708844,1.077121,1.092098,0.885909,
0.24766414153313743,0.131394,0.391702,68.657,0.603,21.675,72.399,0.0483838395021726,-0.0604413819153291,-0.0525694479734865,1.074078,1.092666,0.885316,
0.25233680091530597,0.13387300000000002,0.394181,68.443,0.61,21.675,72.611,0.0506750177645152,-0.0625771361779168,-0.0540576863549193,1.070633,1.093069,0.886002,
0.25700946029747446,0.13635200000000003,0.39666,67.591,0.603,21.675,72.186,0.0527822344520823,-0.0644645179597869,-0.0554935363223915,1.068364,1.092997,0.885679,
0.261682119679643,0.13883100000000004,0.399139,67.377,0.592,21.675,72.186,0.0540862707235865,-0.0666129644408939,-0.0567998515526599,1.065279,1.092398,0.885284,
0.2663547790618114,0.14131,0.401618,65.032,0.581,21.675,71.337,0.0548593598438002,-0.0687262608191226,-0.0581243214361586,1.064859,1.092862,0.883927,
0.2710274384439799,0.143789,0.404097,66.525,0.578,21.675,71.974,0.055535000762137,-0.0705780266386006,-0.0593144059207112,1.063546,1.091702,0.882941,
0.2757019827230352,0.14626900000000004,0.406577,66.525,0.596,21.183,72.186,0.0569939162843786,-0.0728813028888361,-0.0601033512966118,1.060733,1.090623,0.882126,
0.2803746421052036,0.148748,0.409056,66.525,0.606,21.183,72.611,0.0579934169310224,-0.0751210171779765,-0.0612713956814286,1.058123,1.090857,0.881565,
0.2850473014873721,0.151227,0.411535,66.098,0.617,20.69,72.399,0.0588588430411943,-0.0773597802976165,-0.0622678626131308,1.055884,1.090871,0.881634,
0.2897199608695406,0.153706,0.414014,65.672,0.596,20.69,71.974,0.0599115883997424,-0.0797433597669926,-0.0633964214378024,1.055447,1.091475,0.882091,
0.29439262025170915,0.15618500000000002,0.416493,65.458,0.588,20.69,71.762,0.0607144837460878,-0.082173274577685,-0.064439954299011,1.052995,1.091819,0.881634,
0.29906527963387763,0.15866400000000003,0.418972,65.245,0.581,20.69,71.125,0.0618876179595965,-0.0845752446862739,-0.065672070969321,1.050526,1.092472,0.88198,
0.3037379390160462,0.16114300000000004,0.421451,65.885,0.596,20.197,71.762,0.0631243716826725,-0.0868023743859224,-0.0668176544969467,1.048738,1.091899,0.881697,
0.3084105983982146,0.163622,0.42393,65.885,0.599,20.197,71.762,0.0652488312070668,-0.0888911135770294,-0.0678356356834889,1.046238,1.092219,0.881542,
0.3130851426772699,0.16610200000000003,0.42641,68.443,0.613,19.705,72.399,0.0676717782941444,-0.091117071644133,-0.0687991101633404,1.044376,1.092628,0.880566,
0.3177578020594384,0.16858100000000004,0.428889,66.951,0.631,19.705,71.974,0.0699781854120116,-0.0928896386364926,-0.0697401014323458,1.044357,1.091573,0.880183,
0.3224304614416068,0.17106,0.431368,66.738,0.624,19.705,71.549,0.0721944080756132,-0.0949446709912916,-0.0702931053503465,1.042515,1.092503,0.879504,
0.3271031208237753,0.173539,0.433847,66.738,0.599,19.705,70.913,0.0745916633946774,-0.097217868726451,-0.0708719565463703,1.040208,1.094042,0.8798,
0.33177578020594384,0.176018,0.436326,66.738,0.588,19.705,71.125,0.0769590150026782,-0.099360699072105,-0.0717652628581725,1.039685,1.093553,0.879066,
0.3364484395881123,0.17849700000000002,0.438805,67.164,0.599,19.212,71.125,0.0791053184624516,-0.101355004219399,-0.0726233913872642,1.037156,1.093606,0.87805,
0.34112109897028087,0.18097600000000003,0.441284,66.951,0.603,19.212,71.125,0.081342198073793,-0.103422419151602,-0.0735066033480377,1.035834,1.094143,0.878942,
0.34579375835244935,0.18345500000000003,0.443763,67.377,0.61,19.212,71.762,0.0833950546207983,-0.105108014019328,-0.0744664068040859,1.035181,1.094114,0.879299,
0.3504683026315046,0.18593500000000002,0.446243,66.098,0.599,19.212,70.913,0.0854090579380608,-0.106722309788827,-0.0752006121719508,1.033726,1.093329,0.878697,
0.35514096201367307,0.18841400000000003,0.448722,65.672,0.578,18.72,70.7,0.0874708297526057,-0.108574850168831,-0.0759691126854814,1.032827,1.09321,0.877437,
0.3598136213958416,0.19089300000000003,0.451201,63.113,0.567,18.72,69.639,0.08921282135247,-0.11029447755603,-0.0766783493752035,1.031277,1.093289,0.877917,
0.3644862807780101,0.19337200000000004,0.45368,63.966,0.556,18.72,70.063,0.090782392262978,-0.111950101859685,-0.0772399826662037,1.029183,1.092828,0.878396,
0.36915894016017853,0.195851,0.456159,63.753,0.571,18.72,70.276,0.0927308175555315,-0.113662933120983,-0.0776292309803189,1.028808,1.092685,0.877481,
0.373831599542347,0.19833,0.458638,63.539,0.578,18.227,70.7,0.0947130991357524,-0.115416941865731,-0.0777463280915648,1.026064,1.092571,0.877286,
0.37850425892451556,0.20080900000000002,0.461117,63.113,0.592,18.227,70.276,0.0965319694959078,-0.117047196464421,-0.078007253514155,1.024591,1.092275,0.877438,
0.38317691830668404,0.20328800000000002,0.463596,62.473,0.574,18.227,69.851,0.0981719382386651,-0.118819483091542,-0.0782462315968329,1.02333,1.091644,0.877257,
0.3878514625857392,0.205768,0.466076,62.047,0.574,18.227,69.639,0.0996930344027477,-0.120631015197985,-0.0784628540462384,1.022677,1.09103,0.876949,
0.39252412196790776,0.20824700000000002,0.468555,60.768,0.567,17.734,68.789,0.101715434914966,-0.122412477335231,-0.0785437093637469,1.022791,1.090083,0.875808,
0.39719678135007624,0.21072600000000002,0.471034,61.834,0.592,17.734,69.002,0.103526937131302,-0.123888703051132,-0.0789363560761112,1.02155,1.090514,0.875136,
0.4018694407322448,0.21320500000000003,0.473513,61.834,0.603,17.734,69.002,0.105119452307727,-0.125282263278564,-0.0791468616445034,1.021317,1.090521,0.874025,
0.4065421001144133,0.21568400000000004,0.475992,63.113,0.628,17.734,69.639,0.106290363430264,-0.126529284911061,-0.079864416794713,1.019891,1.091306,0.874055,
0.4112147594965817,0.218163,0.478471,62.26,0.635,17.734,69.002,0.107858010296992,-0.127603472394189,-0.0807589101903299,1.019299,1.091381,0.873915,
0.41588741887875025,0.220642,0.48095,61.62,0.631,17.734,68.152,0.109097338697561,-0.128772969073639,-0.0818426591785201,1.017527,1.091802,0.874158,
0.42056007826091873,0.223121,0.483429,61.194,0.621,17.734,67.728,0.110572431490493,-0.130027021034439,-0.0825037682444053,1.017232,1.091886,0.874412,
0.4252346225399739,0.225601,0.485909,61.194,0.624,17.242,67.091,0.112030843995302,-0.131476010035337,-0.0832293952760722,1.015802,1.092052,0.873939,
0.42990728192214245,0.22808,0.488388,61.407,0.642,17.242,67.303,0.11342678199152,-0.132793278795591,-0.0838278703550375,1.014576,1.093059,0.873831,
0.43457994130431093,0.23055900000000001,0.490867,60.981,0.66,17.242,67.091,0.114391689560246,-0.133895998140822,-0.0847323063368534,1.012513,1.093405,0.873421,
0.4392526006864795,0.23303800000000002,0.493346,62.26,0.678,17.242,67.303,0.116084685482647,-0.134940911146197,-0.0855529868393828,1.01183,1.092586,0.87304,
0.44392526006864796,0.23551700000000003,0.495825,60.128,0.674,16.749,66.454,0.117313834104903,-0.135927731305559,-0.086175852537719,1.008221,1.09262,0.873098,
0.4485979194508165,0.23799600000000004,0.498304,59.488,0.671,16.749,65.817,0.118592321841372,-0.136656461500774,-0.0865583117149533,1.009969,1.092464,0.872569,
0.4532705788329849,0.240475,0.500783,58.209,0.667,16.749,64.543,0.120035915508826,-0.13726156055282,-0.0869132497768024,1.008726,1.092196,0.873144,
0.4579432382151534,0.242954,0.503262,57.783,0.667,16.256,64.331,0.1216492297119,-0.137924082286503,-0.0871563231802418,1.00901,1.091388,0.872602,
0.4626177824942087,0.24543400000000004,0.505742,57.356,0.692,16.256,64.118,0.12301456993075,-0.138457552997565,-0.087212763480099,1.009274,1.091536,0.872356,
0.4672904418763772,0.24791300000000005,0.508221,56.503,0.703,16.256,63.482,0.124305431481511,-0.138923821874478,-0.0878775908967452,1.00894,1.091336,0.872588,
0.47196310125854574,0.25039200000000006,0.5107,55.437,0.713,15.764,63.269,0.125547887462949,-0.139494344292686,-0.0887487157027715,1.008586,1.091557,0.872987,
0.4766357606407142,0.25287100000000007,0.513179,53.305,0.703,15.764,61.995,0.126870091610731,-0.140146449198949,-0.0892403960184997,1.009047,1.092006,0.873456,
0.48130842002288254,0.25534999999999997,0.515658,51.812,0.706,15.764,60.721,0.128211646177977,-0.140777246669375,-0.0893959071087838,1.009299,1.092266,0.873991,
0.4859810794050511,0.257829,0.518137,47.974,0.692,15.271,59.023,0.129492573219242,-0.141445825319392,-0.0897664756983483,1.009316,1.092579,0.875079,
0.4906537387872196,0.260308,0.520616,47.761,0.699,14.779,58.174,0.131456406534377,-0.141651961789283,-0.0903673463782844,1.010534,1.092305,0.876795,
0.4953263981693881,0.262787,0.523095,46.055,0.717,14.779,56.9,0.133314777179099,-0.141467090076792,-0.0912887102131068,1.010102,1.092653,0.87572,
0.5000009424484434,0.26526700000000003,0.525575,44.35,0.724,14.286,56.051,0.13567913781353,-0.140992265558594,-0.0923063894764911,1.010819,1.092071,0.876881,
0.5046736018306119,0.26774600000000004,0.528054,42.217,0.728,14.286,53.927,0.137428844613359,-0.140787541854115,-0.0932936658599971,1.011154,1.092183,0.87786,
0.5093462612127804,0.27022500000000005,0.530533,39.872,0.713,13.793,52.017,0.138871280946063,-0.140593814497462,-0.0941978395718842,1.012474,1.091421,0.877985,
0.5140189205949489,0.27270400000000006,0.533012,37.74,0.706,13.301,50.318,0.140442772303374,-0.140192863771803,-0.0955352180570327,1.011843,1.090602,0.877789,
0.5186915799771175,0.27518300000000007,0.535491,35.394,0.696,12.808,47.983,0.141972153177658,-0.139437863874713,-0.0967442422014727,1.013889,1.090398,0.877552,3.566542314248993
0.5233642393592858,0.27766199999999996,0.53797,34.115,0.71,12.316,47.77,0.143346701018849,-0.138562861908963,-0.0988202392461275,1.014955,1.08881,0.877223,3.529737170267387
0.5280368987414543,0.280141,0.540449,31.983,0.717,11.33,48.832,0.144779365384456,-0.13735600750517,-0.100305317958098,1.015797,1.089447,0.878959,3.465204511636448
0.5327095581236228,0.28262,0.542928,32.623,0.728,10.838,55.201,0.144234563375331,-0.136721825702449,-0.102606143427892,1.016251,1.089601,0.878279,3.485017561081779
0.5373841024026781,0.2851,0.545408,29.211,0.717,9.853,57.324,0.144134905330688,-0.136093910300575,-0.104677824412973,1.015443,1.08973,0.878572,3.3745453506647287
0.5420567617848466,0.28757900000000003,0.547887,27.079,0.706,8.867,59.023,0.145227207132797,-0.135640139426852,-0.106063552183705,1.016482,1.089078,0.877298,3.2987585197403715
0.5467294211670151,0.29005800000000004,0.550366,24.947,0.696,8.375,60.297,0.146390977078737,-0.135745292694343,-0.107324890980432,1.017062,1.087941,0.877401,3.2167535744870994
0.5514020805491836,0.29253700000000005,0.552845,23.454,0.681,7.389,61.571,0.147800981058069,-0.136217994469493,-0.108502200282845,1.016595,1.087976,0.878457,3.155041056038873
0.5560747399313521,0.29501600000000006,0.555324,22.175,0.696,6.897,61.146,0.149286102387729,-0.137057296329629,-0.109583121756628,1.015597,1.088238,0.879003,3.0989655281956434
0.5607473993135207,0.29749500000000006,0.557803,20.682,0.706,6.897,60.721,0.151280441170089,-0.137927133608353,-0.110524735842521,1.015398,1.088495,0.879374,3.0292637567627834
0.5654200586956889,0.29997399999999996,0.560282,20.043,0.721,7.389,61.358,0.153195698712116,-0.138518403233631,-0.111166180837813,1.013604,1.089236,0.88021,2.99787996561145
0.5700927180778574,0.30245299999999997,0.562761,17.271,0.717,8.375,60.297,0.15474145866094,-0.138507122088277,-0.112037950221965,1.013985,1.090096,0.881102,2.8490287943617822
0.5747672623569128,0.304933,0.565241,15.991,0.699,9.853,59.66,0.155439538448204,-0.137802445940925,-0.113309367651816,1.014116,1.088929,0.879909,2.772026063977305
0.5794399217390812,0.307412,0.56772,12.58,0.692,11.33,58.386,0.155485123044703,-0.136502198285134,-0.113533161512224,1.014659,1.089572,0.879867,2.5321082512722946
0.5841125811212498,0.309891,0.570199,12.367,0.685,12.808,58.386,0.155587823078796,-0.134968031661517,-0.113366532444449,1.0148,1.08884,0.879437,2.51503163475992
0.5887852405034183,0.31237000000000004,0.572678,11.514,0.699,14.779,58.386,0.155244734457839,-0.133623970939946,-0.113055697027924,1.013622,1.088611,0.880769,2.4435636862536176
0.5934578998855868,0.31484900000000005,0.575157,10.661,0.706,16.749,58.598,0.154378023950815,-0.131937861685156,-0.113523290120044,1.014953,1.087314,0.881808,2.366592222968338
0.5981305592677553,0.31732800000000005,0.577636,9.382,0.717,18.72,58.386,0.153664977334695,-0.130601712619093,-0.113783943027408,1.015841,1.08748,0.882415,2.238792959906266
0.6028032186499238,0.31980700000000006,0.580115,7.889,0.703,20.197,58.174,0.154346078269666,-0.129238489245057,-0.113912625170734,1.016143,1.086838,0.883502,2.0654693841129528
0.6074758780320921,0.32228599999999996,0.582594,7.249,0.692,22.168,57.961,0.15539628451778,-0.128179684696661,-0.113958214865721,1.016858,1.087033,0.884024,1.9808635283187406
0.6121504223111475,0.324766,0.585074,5.117,0.678,24.138,57.324,0.156391284880528,-0.127545444516138,-0.113447317799186,1.0183,1.087554,0.883074,1.6325683298229547
0.6168230816933159,0.327245,0.587553,5.97,0.688,25.616,57.749,0.157088352008583,-0.127712354255506,-0.113775521256178,1.018785,1.087278,0.88176,1.7867469274045107
0.6214957410754844,0.329724,0.590032,5.544,0.706,27.587,57.961,0.157300307004128,-0.127975361974126,-0.114633004297333,1.018994,1.087619,0.88116,1.712716261887602
0.626168400457653,0.332203,0.592511,6.183,0.717,29.064,58.598,0.157510488428092,-0.127665265541318,-0.115220229921664,1.018849,1.087355,0.879632,1.8218035905764316
0.6308410598398215,0.33468200000000004,0.59499,5.117,0.717,31.035,58.174,0.156905935744301,-0.126623807932277,-0.114506524594016,1.021028,1.087281,0.879584,1.6325683298229547
0.63551371922199,0.33716100000000004,0.597469,4.478,0.703,32.513,57.537,0.156735308624532,-0.125231758782025,-0.113868622255998,1.022254,1.089486,0.881858,1.499176518176563
0.6401863786041585,0.33964000000000005,0.599948,3.838,0.692,33.99,57.324,0.15312066492172,-0.120828924430895,-0.112639959126056,1.025991,1.089348,0.882109,1.344951397585508
0.644859037986327,0.34211900000000006,0.602427,3.838,0.685,35.468,57.112,0.150208637739957,-0.116340270271031,-0.111176694518896,1.02888,1.088982,0.881058,1.344951397585508
0.6495316973684956,0.34459800000000007,0.604906,4.051,0.692,36.946,56.9,0.148728136602687,-0.113428770889919,-0.109456624012097,1.031846,1.088603,0.881843,1.3989637642205535
0.6542062416475506,0.347078,0.607386,3.838,0.706,38.424,55.838,0.147721695352416,-0.111760288584252,-0.108091602009264,1.036426,1.087989,0.883538,1.344951397585508
0.6588789010297191,0.349557,0.609865,5.757,0.71,38.917,55.414,0.146410858696377,-0.108957009300836,-0.105706760426786,1.042036,1.086999,0.886424,1.7504165056936725
0.6635515604118877,0.352036,0.612344,4.051,0.706,40.394,54.14,0.142666567584832,-0.105171241973864,-0.103431193832127,1.045367,1.087221,0.889193,1.3989637642205535
0.6682242197940562,0.354515,0.614823,4.051,0.685,41.38,53.503,0.137582410464458,-0.100934291133519,-0.100396035719398,1.049277,1.088055,0.890713,1.3989637642205535
0.6728968791762246,0.35699400000000003,0.617302,3.625,0.674,41.872,52.866,0.132653929111463,-0.0965542767843798,-0.0962688538810691,1.054988,1.088437,0.895081,1.2878542883066382
0.6775695385583932,0.35947300000000004,0.619781,3.838,0.663,42.857,53.29,0.12707256208468,-0.0945111010580032,-0.0933444192622573,1.05999,1.089033,0.902495,1.344951397585508
0.6822421979405617,0.36195200000000005,0.62226,4.264,0.681,43.35,54.14,0.124566813553319,-0.0940628682669283,-0.0898109987445388,1.066476,1.091011,0.903034,1.4502076868635434
0.6869167422196167,0.364432,0.62474,4.264,0.688,43.843,54.989,0.11937529652773,-0.0916873470195905,-0.086268518107383,1.073009,1.093036,0.907166,1.4502076868635434
0.6915894016017853,0.366911,0.627219,4.478,0.696,43.843,55.201,0.112828945986499,-0.0874138809857167,-0.0827716531949329,1.078242,1.094621,0.913511,1.499176518176563
0.6962620609839538,0.36939,0.629698,3.412,0.681,44.335,53.927,0.104611122668933,-0.0838317015675246,-0.0789441633461746,1.084063,1.094596,0.912347,1.2272986296294326
0.7009347203661224,0.371869,0.632177,3.412,0.678,44.335,53.078,0.0957607364108429,-0.0806173981357276,-0.0738609304539831,1.09041,1.096139,0.911366,1.2272986296294326
0.7056073797482909,0.374348,0.634656,0.853,0.663,44.828,51.804,0.0886302072444109,-0.0780234652108478,-0.0664252256392465,1.095849,1.097246,0.911029,-0.15899573149045795
0.7102800391304593,0.376827,0.637135,2.345,0.671,44.828,52.229,0.0797365950684661,-0.073195859842429,-0.0618247307387849,1.10042,1.098282,0.9129,0.8522854018982428
0.7149526985126279,0.37930600000000003,0.639614,2.345,0.685,44.828,53.715,0.0708625307018756,-0.0684196093935734,-0.0570786852750507,1.106186,1.098641,0.912811,0.8522854018982428
0.7196253578947964,0.38178500000000004,0.642093,2.559,0.699,44.828,54.352,0.0647740286281392,-0.0651747502386947,-0.0525137493224639,1.109892,1.096061,0.910257,0.9396165571776518
0.724298017276965,0.38426400000000005,0.644572,2.345,0.703,44.828,53.927,0.0586672406382984,-0.0627659358837152,-0.0482966087273177,1.115461,1.096322,0.91089,0.8522854018982428
0.72897256155602,0.386744,0.647052,1.919,0.688,45.321,54.14,0.0513524317854246,-0.0591356492299194,-0.0436129862147285,1.119114,1.097032,0.910729,0.6518042170255629
0.7336452209381885,0.389223,0.649531,2.132,0.678,45.321,54.352,0.0448068578069508,-0.054650009174016,-0.0393765532814674,1.124372,1.095229,0.91029,0.7570605063035981
0.7383178803203571,0.391702,0.65201,1.706,0.678,45.321,53.503,0.0383673619034975,-0.0505868873864073,-0.0356976323783315,1.12693,1.095391,0.909384,0.5341514490694873
0.7429905397025255,0.394181,0.654489,2.985,0.688,44.828,53.927,0.0338910912231376,-0.0471461991404791,-0.0324833186940833,1.12528,1.095049,0.909727,1.0935997468445653
0.747663199084694,0.39666,0.656968,3.198,0.71,44.828,54.14,0.0310209205445479,-0.0442944504849788,-0.0300610897298123,1.128451,1.096337,0.912638,1.1625256144117624
0.7523358584668626,0.399139,0.659447,5.757,0.713,44.828,55.626,0.0294890255200763,-0.0420512876368385,-0.0279501082495966,1.132315,1.09378,0.912035,1.7504165056936725
0.7570085178490311,0.40161800000000003,0.661926,4.904,0.717,44.335,55.626,0.0276034746795168,-0.0397189091248153,-0.0261363311578782,1.134922,1.093411,0.91335,1.5900511986339103
0.7616830621280863,0.40409800000000007,0.664406,4.904,0.699,44.828,55.626,0.0252915613571066,-0.0364353160953642,-0.0242545191335673,1.135906,1.091339,0.916536,1.5900511986339103
0.7663557215102547,0.40657699999999997,0.666885,5.117,0.678,44.828,54.989,0.0228800375180614,-0.0332931507619959,-0.0234974382988857,1.136586,1.089996,0.91813,1.6325683298229547
0.7710283808924232,0.409056,0.669364,5.757,0.667,44.828,54.14,0.0211472021656554,-0.0303348500405517,-0.0223621284202379,1.139073,1.089622,0.918678,1.7504165056936725
0.7757010402745917,0.411535,0.671843,6.397,0.678,44.828,54.989,0.01765806486429,-0.0273037352836877,-0.0214377466944962,1.143163,1.089603,0.917652,1.8558291304680006
0.7803736996567602,0.414014,0.674322,6.61,0.685,44.335,55.414,0.0135523895532022,-0.0243614800524987,-0.0202700299022306,1.144477,1.08966,0.918598,1.888583653863595
0.7850463590389287,0.416493,0.676801,8.102,0.696,44.335,56.263,0.0114878106448037,-0.0218590051615978,-0.018598320564945,1.142686,1.089952,0.918106,2.0921109447804986
0.7897190184210973,0.418972,0.67928,6.823,0.681,44.335,55.626,0.00929201246739145,-0.0190347323666793,-0.0176100772730719,1.145346,1.090901,0.916891,1.9202992578332867
0.7943916778032658,0.421451,0.681759,7.036,0.671,44.335,55.626,0.00766165525300847,-0.016238153529306,-0.0161798436408513,1.147234,1.091205,0.918919,1.9510398268753117
0.7990643371854342,0.42393000000000003,0.684238,5.33,0.66,43.843,54.777,0.00689311014074905,-0.0140933103649807,-0.0146293796787612,1.149742,1.08907,0.917378,1.673351238177753
0.8037388814644896,0.42641000000000007,0.686718,6.183,0.667,43.843,55.201,0.0055338926078875,-0.012223611703245,-0.0132644816149539,1.153051,1.089662,0.917796,1.8218035905764316
0.8084115408466579,0.42888899999999996,0.689197,6.61,0.681,43.843,55.626,0.00363187762936688,-0.00978460146410023,-0.0126228199850645,1.155031,1.090075,0.920192,1.888583653863595
0.8130842002288264,0.431368,0.691676,6.61,0.692,43.843,55.838,0.00234927395660834,-0.00782672575618581,-0.0117676940928967,1.156488,1.089101,0.919015,1.888583653863595
0.8177568596109949,0.433847,0.694155,6.397,0.696,43.35,55.626,0.000731406537443704,-0.00590262018266085,-0.0106575931370626,1.156522,1.087755,0.918766,1.8558291304680006
0.8224295189931634,0.436326,0.696634,5.97,0.685,43.35,55.414,-0.000309375334583259,-0.0033618002012009,-0.00903609818693375,1.156954,1.089851,0.917993,1.7867469274045107
0.827102178375332,0.438805,0.699113,5.97,0.674,42.857,55.414,-0.00233066319703955,-0.0014318983052457,-0.007399051031021,1.157325,1.089952,0.919724,1.7867469274045107
0.8317748377575005,0.441284,0.701592,4.264,0.667,42.365,54.564,-0.00394519833306256,0.000326066802996796,-0.00557517706472597,1.158709,1.087692,0.919132,1.4502076868635434
0.8364493820365557,0.44376400000000005,0.704072,5.757,0.678,42.365,54.989,-0.00555827135176528,0.00176424588606928,-0.00336048756261775,1.159488,1.087987,0.92182,1.7504165056936725
0.8411220414187243,0.44624300000000006,0.706551,5.97,0.685,41.872,55.201,-0.00671040203651534,0.00294280808332962,-0.00127672681771945,1.160024,1.087907,0.922892,1.7867469274045107
0.8457947008008928,0.44872200000000007,0.70903,7.036,0.692,41.872,55.838,-0.00811207827288142,0.00449485771284325,0.000825917367097158,1.160096,1.08738,0.923023,1.9510398268753117
0.850467360183061,0.45120099999999996,0.711509,6.61,0.699,41.38,55.626,-0.00881085577420824,0.00566792379204652,0.00319124061640517,1.160208,1.08875,0.923165,1.888583653863595
0.8551400195652296,0.45367999999999997,0.713988,6.61,0.681,40.887,54.989,-0.00932783045768629,0.00663750630050641,0.0050409715667018,1.160261,1.088039,0.922661,1.888583653863595
0.8598126789473981,0.456159,0.716467,6.61,0.671,40.887,54.564,-0.00985166391239796,0.00747145647433739,0.00697710764271293,1.161641,1.088748,0.920984,1.888583653863595
0.8644853383295666,0.458638,0.718946,6.823,0.663,40.394,54.352,-0.0106296004491203,0.00819163674901181,0.00877215487401927,1.163301,1.089693,0.92151,1.9202992578332867
0.8691579977117351,0.461117,0.721425,7.676,0.681,40.394,54.352,-0.010871464221301,0.00843685733340738,0.0100848379590524,1.164499,1.088372,0.920165,2.0380985781454535
0.8738306570939036,0.463596,0.723904,7.889,0.688,39.409,54.352,-0.0121034010804359,0.00873860710358883,0.0110339779046521,1.165269,1.08868,0.921027,2.0654693841129528
0.878505201372959,0.46607600000000005,0.726384,10.235,0.696,39.409,54.989,-0.0137665339088962,0.00897273071329635,0.0121092379244092,1.16624,1.08966,0.922107,2.325813219113253
0.8831778607551274,0.46855500000000005,0.728863,8.955,0.692,38.917,54.352,-0.01484846130743,0.00901859994215864,0.0126404185542326,1.167286,1.091554,0.92409,2.192212035512675
0.8878505201372959,0.47103400000000006,0.731342,8.955,0.678,38.424,53.927,-0.015427918325062,0.00891966227238379,0.0130016108083406,1.167176,1.091725,0.924262,2.192212035512675
0.8925231795194642,0.47351299999999996,0.733821,8.742,0.663,37.931,53.078,-0.0165706046539646,0.00869672297136594,0.0131381752849565,1.167027,1.09232,0.924559,2.168138996441123
0.8971958389016328,0.47599199999999997,0.7363,9.168,0.663,37.439,52.866,-0.0175247085417646,0.0084452763101873,0.0133560340999723,1.166632,1.091674,0.924227,2.215719159972384
0.9018684982838013,0.478471,0.738779,9.382,0.671,36.946,53.29,-0.0179994394691326,0.00818473400281109,0.0134578447271463,1.167325,1.092948,0.925319,2.238792959906266
0.9065411576659698,0.48095,0.741258,9.382,0.681,36.454,53.078,-0.0173607037896606,0.00780045063071643,0.0141671990917991,1.167536,1.092664,0.925322,2.238792959906266
0.9112157019450251,0.48343,0.743738,9.595,0.692,35.961,53.715,-0.0169456919295823,0.0075613183597237,0.0146913643018247,1.166699,1.092038,0.924563,2.261242129459663
0.9158883613271936,0.48590900000000004,0.746217,8.529,0.681,35.468,52.866,-0.0161986890013727,0.00709047357662393,0.0144854974915389,1.165917,1.093088,0.924265,2.1434721213369725
0.9205610207093621,0.48838800000000004,0.748696,8.316,0.671,35.468,52.441,-0.015739904943783,0.00699189175163514,0.0140124844242399,1.164637,1.092542,0.925134,2.118181369995767
0.9252336800915306,0.49086700000000005,0.751175,5.544,0.663,34.976,51.592,-0.0149333596531948,0.00634248859489065,0.0136049985340493,1.165843,1.091948,0.924757,1.712716261887602
0.9299063394736992,0.49334600000000006,0.753654,6.61,0.66,34.483,52.017,-0.013807508172391,0.00568212770929783,0.012770683614388,1.165759,1.091677,0.923976,1.888583653863595
0.9345789988558677,0.49582500000000007,0.756133,6.61,0.66,33.498,52.017,-0.0127206440454771,0.00499238887536051,0.0123525615319008,1.166353,1.092021,0.924361,1.888583653863595
0.939251658238036,0.49830399999999997,0.758612,6.61,0.631,33.498,52.441,-0.0117518524701784,0.00425956400608979,0.0120658544293492,1.167631,1.091972,0.923833,1.888583653863595
0.9439243176202045,0.500783,0.761091,6.397,0.556,33.005,52.229,-0.0105805573263728,0.0035052135879936,0.0119020260893218,1.167111,1.09194,0.924102,1.8558291304680006
0.948596977002373,0.503262,0.76357,5.757,0.471,32.513,51.804,-0.0090286409744639,0.00295788665846611,0.0116538140377673,1.16831,1.091178,0.923402,1.7504165056936725
0.9532715212814283,0.505742,0.76605,5.757,0.456,32.513,51.592,-0.00763204786532779,0.00236131375273578,0.0109589234488321,1.169905,1.091537,0.923627,1.7504165056936725
0.9579441806635968,0.508221,0.768529,5.117,0.481,32.02,50.955,-0.00603284744058178,0.00169770089699071,0.0100961121801601,1.169679,1.090917,0.922859,1.6325683298229547
0.9626168400457653,0.5107,0.771008,6.61,0.571,32.02,51.38,-0.00461624413952728,0.00120257098281297,0.00922439338002814,1.168355,1.089952,0.922604,1.888583653863595
0.9672894994279339,0.513179,0.773487,6.823,0.699,31.527,51.592,-0.00348943347753137,0.000684145179548446,0.00769176964189272,1.168487,1.090249,0.92235,1.9202992578332867
0.9719621588101024,0.5156580000000001,0.775966,9.382,0.842,31.035,52.229,-0.00309622321154856,0.000566357371791756,0.00590991917109007,1.169179,1.088634,0.92239,2.238792959906266
0.9766348181922708,0.5181370000000001,0.778445,8.955,0.928,31.035,52.017,-0.00219246857997624,0.000236938308279203,0.00432488633737092,1.167191,1.087991,0.92224,2.192212035512675
0.9813074775744391,0.520616,0.780924,9.382,0.971,30.542,51.38,-0.00125955452415656,0.000119261832607854,0.00258302922600352,1.166777,1.087385,0.921846,2.238792959906266
0.9859820218534945,0.523096,0.783404,10.021,0.971,30.542,50.743,0.000184272873567056,-0.000123560358667008,0.00101684137136681,1.167269,1.085843,0.922168,2.304682891076192
0.9906546812356629,0.525575,0.785883,11.301,0.874,30.05,51.167,0.00199063274985417,-0.000341331066313579,-0.000639728442701859,1.166145,1.08642,0.922537,2.424891217378014
0.9953273406178315,0.528054,0.788362,12.793,0.771,30.05,51.38,0.00362411551728895,-0.000453144430923739,-0.0017919382694235,1.165232,1.087261,0.923358,2.548898146334898
1.0,0.530533,0.790841,14.072,0.735,30.05,51.38,0.00451479977241055,-0.00038444152434889,-0.00268130758334738,1.16328,1.08782,0.922976,2.644187007435257
