cardiac cycle [%],t abs [s],t [s],ECG [mV],AoP [mmHg],LVP [mmHg],LAD Flow [ml/s],rad strain,circ strain,long strain,tissue vol ischemic [ml],tissue vol border [ml],tissue vol remote [ml]
0.0,0.0,0.449109,1.72,48.031,7.888,22.549,0.0,0.0,0.0,0.985136,0.910064,0.934559
0.009090736481208249,0.0067030000000000145,0.455812,1.795,47.83,9.103,22.549,0.00209319678744952,-0.00284585376800388,-0.00228146366092418,0.981201,0.907184,0.930595
0.018182829181494664,0.013407000000000002,0.462516,1.806,47.426,11.33,22.059,0.00427455476507177,-0.00681697392273673,-0.00456736269761456,0.97553,0.903941,0.920775
0.027273565662702913,0.020110000000000017,0.469219,1.785,47.426,14.975,21.078,0.00625722676928687,-0.0106911367419986,-0.00635319369465883,0.970061,0.899227,0.909722
0.03636430214391116,0.02681300000000003,0.475922,1.581,48.031,19.835,20.588,0.00712507392297799,-0.0138157400748539,-0.00764678936983065,0.961999,0.890714,0.905974
0.04545503862511941,0.033516000000000046,0.482625,0.481,48.031,24.695,19.608,0.00669252227379292,-0.0155269043387235,-0.00892347989884007,0.958813,0.889989,0.90337
0.05454577510632758,0.040219000000000005,0.489328,0.496,48.031,29.758,17.157,0.00508161532545286,-0.0163435181953762,-0.0100261544088185,0.955453,0.888165,0.89895
0.06363651158753583,0.04692200000000002,0.496031,0.521,48.637,35.428,13.725,0.00300868049717545,-0.0172911056659702,-0.0107015288889425,0.953149,0.886698,0.896394
0.07272724806874407,0.053625000000000034,0.502734,0.521,50.05,41.098,8.823,0.00163071877774321,-0.0180088821154121,-0.0116026368683608,0.949963,0.885936,0.894354
0.08181934076903043,0.060328999999999966,0.509438,0.503,52.471,46.363,4.902,0.000937506313582645,-0.0185157373802459,-0.0127306145778256,0.947625,0.885522,0.892959
0.09091007725023867,0.06703199999999998,0.516141,0.46,55.7,51.02,4.902,0.00119976261450727,-0.0207746803926568,-0.014129168288025,0.945575,0.884415,0.891757
0.10000081373144691,0.073735,0.522844,0.51,59.131,54.665,7.353,0.00233372497029702,-0.0241980610564171,-0.0151887502975516,0.943132,0.884972,0.891724
0.10909155021265517,0.08043800000000001,0.529547,0.521,61.957,57.703,10.784,0.00373522784762527,-0.0280481190858399,-0.0164005284933101,0.940849,0.884064,0.891144
0.11818228669386341,0.08714100000000002,0.53625,0.524,64.379,59.93,13.725,0.00631284548623165,-0.0322742729633873,-0.018703324096101,0.938785,0.883592,0.889423
0.12727302317507166,0.09384400000000004,0.542953,0.524,65.993,61.955,16.176,0.0101446468296268,-0.0366638025650312,-0.0214642951649751,0.933079,0.882987,0.885679
0.13636375965627992,0.10054700000000005,0.549656,0.488,67.809,63.373,18.137,0.012921099596313,-0.0410824473108461,-0.0236573362971908,0.932768,0.883688,0.887474
0.14545449613748815,0.10725000000000007,0.556359,0.524,69.222,64.385,18.627,0.0164348273674866,-0.0451154167136364,-0.026513456273494,0.930092,0.883365,0.887026
0.15454523261869627,0.11395299999999997,0.563062,0.528,70.433,65.398,19.117,0.0208980682315321,-0.0483541213142853,-0.0297034290569132,0.924327,0.882004,0.884117
0.16363732531898276,0.12065700000000001,0.569766,0.524,71.039,66.005,19.117,0.0257140206472046,-0.0530607460719417,-0.032617984951894,0.925438,0.88199,0.885261
0.17272806180019099,0.12736000000000003,0.576469,0.531,71.644,66.41,19.117,0.0318104437334985,-0.0591154690934875,-0.0356617620833693,0.923566,0.881322,0.884274
0.18181879828139924,0.13406300000000004,0.583172,0.524,72.249,67.018,18.627,0.0374383643877362,-0.0634281073111208,-0.0388356610324538,0.920472,0.879947,0.884857
0.1909095347626075,0.14076600000000006,0.589875,0.571,72.653,67.22,18.627,0.0421202103027863,-0.0671288505482234,-0.0418839908505895,0.91868,0.879391,0.884569
0.20000027124381575,0.14746900000000007,0.596578,0.56,72.855,67.22,18.627,0.0452257256526605,-0.0710203893546703,-0.0447626483587512,0.917188,0.877707,0.884299
0.20909100772502384,0.15417199999999998,0.603281,0.556,73.057,67.423,18.137,0.0488042529418011,-0.0750248954007099,-0.0478447099885023,0.915031,0.877215,0.883742
0.2181817442062321,0.160875,0.609984,0.563,73.46,67.423,17.647,0.0523318514271445,-0.0787199634273086,-0.0507482585163437,0.912911,0.876749,0.883399
0.22727248068744033,0.167578,0.616687,0.538,73.46,67.22,17.647,0.0555644781450974,-0.082286222668553,-0.0536036334254314,0.909897,0.875471,0.882532
0.23636457338772682,0.17428200000000005,0.623391,0.574,73.46,67.22,17.647,0.0592969094885232,-0.0864049233615897,-0.0564262474716271,0.907556,0.874412,0.881617
0.24545530986893507,0.18098500000000006,0.630094,0.571,73.46,67.22,17.647,0.0625596915083338,-0.0904974016937942,-0.0589292858265762,0.904826,0.873557,0.881978
0.25454604635014316,0.18768799999999997,0.636797,0.585,73.662,67.018,17.647,0.065226767299211,-0.0939688001647062,-0.0614556336290639,0.903733,0.87285,0.881919
0.26363678283135145,0.19439099999999998,0.6435,0.588,73.662,66.815,17.157,0.0679347787237747,-0.0973147891920964,-0.06385080035314,0.901761,0.872741,0.881341
0.2727275193125597,0.201094,0.650203,0.571,73.662,66.613,17.647,0.072011913024538,-0.100218259623848,-0.0661176405041269,0.899907,0.871375,0.881191
0.2818182557937679,0.207797,0.656906,0.56,73.662,66.41,17.647,0.0755348884014232,-0.102513303712218,-0.0682170836412413,0.898792,0.869183,0.880118
0.2909089922749762,0.21450000000000002,0.663609,0.567,73.46,66.41,17.647,0.078898585970692,-0.104493373544106,-0.0702671537214032,0.898168,0.867782,0.879072
0.2999997287561844,0.22120300000000004,0.670312,0.571,73.46,66.005,17.647,0.0819557465070468,-0.107450715779757,-0.072166309618152,0.895985,0.867983,0.879004
0.30909182145647074,0.22790699999999997,0.677016,0.571,73.057,65.803,17.647,0.0854043494272145,-0.110320014909176,-0.0738493898590458,0.895047,0.867088,0.879149
0.318182557937679,0.23460999999999999,0.683719,0.571,73.057,65.6,17.647,0.0884078676607329,-0.112697249569806,-0.0749135636102726,0.89385,0.866661,0.879423
0.32727329441888725,0.241313,0.690422,0.66,72.855,65.195,17.157,0.0915172386406694,-0.115810309344517,-0.0756423758238024,0.892575,0.866093,0.879932
0.3363640309000955,0.24801600000000001,0.697125,0.667,72.451,64.79,16.666,0.0943927149832975,-0.118470188626817,-0.0765678243298864,0.892039,0.865786,0.87976
0.34545476738130376,0.25471900000000003,0.703828,0.667,72.249,64.385,16.176,0.0966618235924908,-0.121595425922783,-0.077633186432046,0.890526,0.865486,0.879945
0.354545503862512,0.26142200000000004,0.710531,0.667,72.048,63.98,15.196,0.0988598134691866,-0.124394081082706,-0.0786420733868157,0.889711,0.864943,0.879814
0.3636362403437202,0.26812500000000006,0.717234,0.653,71.644,63.373,15.686,0.101557241954478,-0.12648893333072,-0.0797478565196033,0.889289,0.864062,0.879639
0.3727283330440066,0.274829,0.723938,0.671,71.24,62.968,15.686,0.10458875777055,-0.127744568960812,-0.0806879567796801,0.888577,0.86252,0.87948
0.3818190695252148,0.281532,0.730641,0.649,70.635,62.36,16.176,0.106940997220865,-0.128542233069138,-0.0816061547755971,0.887721,0.862022,0.879703
0.39090980600642306,0.288235,0.737344,0.671,70.433,61.753,16.176,0.109779209710004,-0.12949394684959,-0.0825465393819159,0.887986,0.861205,0.879398
0.40000054248763134,0.29493800000000003,0.744047,0.671,69.626,61.145,16.176,0.11262196385937,-0.130356723018314,-0.0835173879936462,0.887061,0.860643,0.879202
0.40909127896883957,0.30164100000000005,0.75075,0.628,69.02,60.133,16.176,0.115600010773262,-0.132939277244712,-0.0843817469972661,0.887349,0.860116,0.879305
0.41818201545004785,0.30834400000000006,0.757453,0.653,68.213,59.12,15.196,0.117388896702473,-0.133670762010161,-0.085327226913268,0.886035,0.860569,0.879115
0.4272727519312559,0.31504699999999997,0.764156,0.653,67.204,57.703,15.196,0.119070346929991,-0.133601577928572,-0.0862842353857584,0.887062,0.861244,0.879224
0.4363634884124642,0.32175,0.770859,0.656,65.791,56.083,15.196,0.120729872612871,-0.133340301807589,-0.0877427364470876,0.887399,0.861686,0.879443
0.4454542248936724,0.328453,0.777562,0.656,64.177,53.855,15.196,0.120803421200296,-0.13312506162515,-0.0882548566190236,0.888371,0.862299,0.880098
0.4545463175939589,0.33515700000000004,0.784266,0.649,61.755,51.02,14.215,0.11867208552195,-0.129879950160947,-0.0881564986051316,0.89008,0.863349,0.881346
0.46363705407516714,0.34186000000000005,0.790969,0.649,58.93,47.578,12.745,0.114674447017703,-0.124809109451235,-0.0874516447725,0.892364,0.865373,0.882714
0.4727277905563754,0.34856300000000007,0.797672,0.61,55.902,43.73,11.274,0.111854539414075,-0.119943067101355,-0.0863704934450961,0.895321,0.86683,0.884101
0.4818185270375835,0.35526599999999997,0.804375,0.667,56.508,38.87,9.804,0.109494575870696,-0.117068800037909,-0.0851503540782288,0.899101,0.870191,0.887985
0.49090926351879177,0.361969,0.811078,0.667,62.159,32.795,10.784,0.106909082011202,-0.112541321299801,-0.0838755862066386,0.902022,0.87537,0.89063
0.5,0.368672,0.817781,0.653,63.168,28.745,22.059,0.105209845572948,-0.108137149093609,-0.082863231419293,0.90362,0.875604,0.893038
0.5090907364812083,0.375375,0.824484,0.653,62.36,25.708,31.863,0.102687033789187,-0.104543046318614,-0.0822719755273634,0.904795,0.876673,0.896672
0.5181814729624165,0.38207800000000003,0.831187,0.635,61.755,22.67,31.863,0.100255240136531,-0.10245378920884,-0.0817103594997765,0.904595,0.878348,0.899524
0.527273565662703,0.38878200000000007,0.837891,0.663,61.755,20.038,29.902,0.0980131085209026,-0.103122348815274,-0.0803282002966895,0.904996,0.878643,0.903507
0.5363643021439111,0.395485,0.844594,0.656,62.159,17.203,28.921,0.0970410398539798,-0.103823401585009,-0.0791874789725887,0.905448,0.879458,0.906767
0.5454550386251193,0.402188,0.851297,0.635,62.36,14.773,28.921,0.095017804128716,-0.104026646134427,-0.0784216976034595,0.906145,0.877408,0.91076
0.5545457751063276,0.408891,0.858,0.663,62.36,12.748,29.412,0.0947569887059589,-0.103166361837128,-0.0775940090235929,0.906558,0.87926,0.914239
0.5636365115875358,0.415594,0.864703,0.638,62.159,10.723,30.392,0.0947394341924251,-0.102791475326609,-0.0775518691636518,0.906968,0.879832,0.917772
0.5727272480687441,0.42229700000000003,0.871406,0.649,61.755,8.9,30.392,0.0952052717288835,-0.102318147102117,-0.0777393145365636,0.907199,0.880906,0.921506
0.5818179845499524,0.42900000000000005,0.878109,0.649,61.553,7.483,30.392,0.0942123210656673,-0.103046004275231,-0.0765500552353835,0.908217,0.882421,0.925541
0.5909087210311605,0.43570300000000006,0.884812,0.649,61.351,6.268,30.392,0.0942881153394234,-0.103388550213872,-0.0753788162560298,0.909499,0.882466,0.928478
0.6000008137314469,0.442407,0.891516,0.667,61.15,5.255,30.392,0.0941153518152619,-0.103785477593479,-0.0736526868447427,0.910054,0.882731,0.930694
0.6090915502126552,0.44911,0.898219,0.656,60.948,4.445,29.902,0.0962190427175843,-0.10203669056691,-0.0715374502474578,0.91122,0.880938,0.931959
0.6181822866938634,0.455813,0.904922,0.663,60.746,4.243,30.882,0.0952879766034675,-0.100445701939231,-0.0686140533675181,0.911964,0.881685,0.93523
0.6272730231750716,0.46251600000000004,0.911625,0.66,60.342,3.635,30.392,0.0935295769311346,-0.100818356417832,-0.0650330471080351,0.913486,0.88467,0.937749
0.6363637596562799,0.46921900000000005,0.918328,0.66,60.342,3.433,30.882,0.0896860630611725,-0.102008438520345,-0.0604282907726572,0.916129,0.887384,0.940884
0.6454544961374882,0.47592200000000007,0.925031,0.663,59.939,3.028,30.882,0.0836782587880369,-0.0996286884229049,-0.0544587849328519,0.919017,0.889142,0.943233
0.6545452326186962,0.48262499999999997,0.931734,0.638,59.535,2.825,31.372,0.0781707931864885,-0.0968150186460579,-0.0484064034525249,0.923581,0.890119,0.945119
0.6636359690999045,0.489328,0.938437,0.681,59.333,2.623,31.372,0.0730338226015187,-0.0927753316592981,-0.0421532567479685,0.92836,0.893039,0.945157
0.672728061800191,0.49603200000000003,0.945141,0.674,59.131,2.42,31.863,0.0666670016292466,-0.086156520545365,-0.0363300904076891,0.93321,0.895709,0.944643
0.6818187982813992,0.502735,0.951844,0.674,58.93,2.218,31.863,0.0582657865906849,-0.0791882370174074,-0.0304769522693037,0.938531,0.899656,0.94554
0.6909095347626075,0.5094380000000001,0.958547,0.681,58.526,2.218,31.372,0.050788133776348,-0.0727989622126537,-0.0252240851858035,0.944626,0.902314,0.944166
0.7000002712438157,0.5161410000000001,0.96525,0.649,58.122,2.218,31.372,0.0446741725793248,-0.0649486552996676,-0.0211396041128579,0.951494,0.909566,0.94539
0.7090910077250239,0.522844,0.971953,0.681,57.719,2.42,30.882,0.039299418830049,-0.0577136071299646,-0.0181948410064558,0.959184,0.91029,0.944051
0.718181744206232,0.529547,0.978656,0.681,57.315,2.825,30.882,0.0350652572552232,-0.0500961399375579,-0.0160208114272267,0.962586,0.911745,0.944647
0.7272724806874403,0.53625,0.985359,0.681,57.113,3.028,30.392,0.0301165171250478,-0.0442319326659435,-0.0144293190222634,0.966123,0.913788,0.943732
0.7363632171686486,0.542953,0.992062,0.688,56.911,3.23,30.392,0.026209512812223,-0.0390476372818507,-0.0131585180629333,0.968466,0.915537,0.943859
0.745455309868935,0.5496570000000001,0.998766,0.667,56.306,3.635,30.392,0.0231200970482818,-0.0347339948909684,-0.0119063022826468,0.971173,0.916785,0.943537
0.7545460463501432,0.55636,1.005469,0.681,55.902,3.838,30.392,0.0207606372545275,-0.0312844132097385,-0.0111226271172917,0.973262,0.917619,0.944036
0.7636367828313516,0.5630630000000001,1.012172,0.681,55.499,4.04,29.902,0.0189962842473337,-0.0292455192196734,-0.0102287853860686,0.972568,0.918196,0.944014
0.7727275193125597,0.569766,1.018875,0.681,55.095,4.04,29.902,0.0177261075335269,-0.028261896761646,-0.00940590973761332,0.973727,0.91812,0.944634
0.7818182557937681,0.5764690000000001,1.025578,0.685,54.893,4.243,29.412,0.01704973520186,-0.0280325041297967,-0.00824482169815996,0.972356,0.917577,0.944446
0.7909089922749761,0.583172,1.032281,0.671,54.288,4.243,29.412,0.0164129645940149,-0.0274032027065332,-0.00705213581799496,0.972683,0.918245,0.944227
0.7999997287561843,0.5898749999999999,1.038984,0.728,53.884,4.243,28.921,0.0157853937270764,-0.0273926385863392,-0.00587757055465027,0.97321,0.918765,0.944365
0.8090904652373927,0.596578,1.045687,0.767,53.682,4.445,28.431,0.0157649003527735,-0.0277829698870388,-0.0050235030845556,0.972681,0.919673,0.943964
0.8181825579376791,0.6032820000000001,1.052391,0.792,53.279,4.243,28.431,0.0152320217264317,-0.0281121901944463,-0.00456267045909259,0.973137,0.919755,0.9441
0.8272732944188872,0.609985,1.059094,0.774,53.077,4.243,28.431,0.0148228636875629,-0.0287388828916642,-0.00383231612035338,0.972578,0.919019,0.943123
0.8363640309000957,0.6166880000000001,1.065797,0.674,52.875,4.648,28.921,0.0146926817160313,-0.0291729438959316,-0.00288990274273594,0.972403,0.918639,0.943732
0.8454547673813038,0.623391,1.0725,0.763,52.673,4.445,29.412,0.0144522677910044,-0.0294747290643059,-0.00233365449792973,0.971128,0.918801,0.943242
0.8545455038625118,0.6300939999999999,1.079203,0.785,52.471,4.445,29.412,0.0143967336231927,-0.0295527862390694,-0.00170957287078366,0.972652,0.917796,0.941489
0.8636362403437202,0.6367970000000001,1.085906,0.774,52.27,4.648,29.412,0.0140827680064708,-0.0291525675884834,-0.00119014809889354,0.972467,0.916419,0.940732
0.8727269768249284,0.6435,1.092609,0.667,52.068,5.053,28.921,0.0137326976650208,-0.028117587133982,-0.00052408208200443,0.97353,0.914657,0.939575
0.8818177133061368,0.6502030000000001,1.099312,0.638,51.866,5.053,28.431,0.0126303499564016,-0.0268056806809838,0.000179709247405117,0.97398,0.912414,0.937791
0.8909098060064232,0.6569070000000001,1.106016,0.671,51.462,5.458,27.941,0.0114128215285328,-0.0245263300472786,0.00124419887112027,0.975284,0.911547,0.936249
0.9000005424876313,0.66361,1.112719,0.671,51.261,5.66,27.451,0.0104373832844669,-0.0215961526065854,0.00227029573210167,0.97682,0.911177,0.935445
0.9090912789688395,0.6703129999999999,1.119422,0.667,51.059,5.863,27.451,0.00884671481617389,-0.0188356847927317,0.00266334674195625,0.978988,0.909495,0.933906
0.9181820154500479,0.6770160000000001,1.126125,0.667,50.857,6.065,26.961,0.00657269954048389,-0.0150816798838489,0.00320881483967202,0.981168,0.908876,0.933918
0.9272727519312559,0.683719,1.132828,0.646,50.655,6.268,25.98,0.00487308170914246,-0.0116622341970405,0.00362742061069553,0.983991,0.907444,0.933217
0.9363634884124643,0.6904220000000001,1.139531,0.663,50.453,6.47,25.49,0.0027590349477767,-0.00848495057643973,0.00425597010301483,0.986086,0.907849,0.933068
0.9454542248936724,0.697125,1.146234,0.663,50.251,6.673,25.0,0.000992343794963945,-0.00471086058403056,0.00395970607009549,0.987905,0.907763,0.933628
0.9545463175939589,0.703829,1.152938,0.671,49.848,6.875,24.51,-0.000983577136622409,-0.00206700679815454,0.00458050651034997,0.989038,0.90795,0.933756
0.963637054075167,0.7105319999999999,1.159641,0.678,49.646,6.875,24.51,-0.00210363868346261,-0.000348196587575801,0.00449668410559317,0.990726,0.908357,0.933896
0.9727277905563754,0.7172350000000001,1.166344,0.453,49.242,7.078,24.019,-0.00279287547494326,0.00121249589475541,0.00420791253109824,0.990422,0.90948,0.934115
0.9818185270375835,0.723938,1.173047,0.671,48.839,6.875,24.019,-0.00296628832627368,0.00216680187739733,0.00347541814973743,0.989818,0.909982,0.93494
0.9909092635187919,0.7306410000000001,1.17975,0.681,48.637,7.28,23.529,-0.00250357274026879,0.00179840252991971,0.00224544288397579,0.988143,0.910959,0.935383
1.0,0.737344,1.186453,0.663,48.233,7.483,23.039,-0.00103969271946922,0.000748744697570944,0.000577161783506301,0.985626,0.910932,0.934395
