cardiac cycle [%],t abs [s],t [s],LVP [mmHg],ECG [mV],LAD Flow [ml/s],AoP [mmHg],AoP/Flow,Pao/PLV,rad strain,circ strain,long strain,tissue vol ischemic [ml],tissue vol border [ml],tissue vol remote [ml]
0.0,0.0,0.569766,31.131,0.613,36.454,105.732,2.900422450211225,3.396357328707719,0.0,0.0,0.0,0.881826,0.822035,0.811245
0.008928404928404963,0.0067030000000000145,0.576469,34.329,0.592,35.961,103.184,2.8693306637746447,3.0057385883655217,-0.00197988124573289,0.00426074404448892,0.00494148668233888,0.881452,0.821471,0.811646
0.017856809856809926,0.013406000000000029,0.583172,37.314,0.653,35.961,102.76,2.8575401129000864,2.753926140322667,-0.00335316966721235,0.00755686333704027,0.00867585723034346,0.882599,0.81945,0.811003
0.02678521478521489,0.020109000000000044,0.589875,39.873,1.07,36.454,102.972,2.824710594173479,2.582499435708374,-0.00508850044664214,0.00969893050005839,0.0100917184180148,0.88512,0.819244,0.810594
0.03571361971361985,0.026812000000000058,0.596578,43.284,1.435,35.468,101.061,2.849357167023796,2.3348350429719993,-0.00633084420300569,0.0104386220381096,0.00905832815946526,0.887672,0.819639,0.80807
0.044642024642024665,0.03351499999999996,0.603281,45.63,1.492,34.976,102.972,2.94407593778591,2.2566732412886257,-0.00661703193293961,0.0106088317553751,0.00668493553562357,0.891692,0.821849,0.806288
0.05357042957042963,0.040217999999999976,0.609984,56.291,1.185,33.498,99.787,2.978894262344021,1.7726990104990143,-0.00650856819507587,0.0104026102657231,0.00620907713469722,0.893736,0.822685,0.804866
0.062498834498834595,0.04692099999999999,0.616687,70.15,0.585,31.527,100.212,3.178608811494909,1.4285388453314325,-0.00587757986799291,0.0102134263204974,0.00754754607690832,0.89021,0.819534,0.807051
0.07142857142857159,0.053625000000000034,0.623391,86.781,0.581,30.542,100.637,3.2950363433959793,1.1596662863990965,-0.00458395756112799,0.00923897274928547,0.00984202368714432,0.883719,0.819033,0.804359
0.08035697635697656,0.06032800000000005,0.630094,103.199,0.592,29.064,99.787,3.433353977429122,0.9669376641246524,-0.00275071620675868,0.00803029713800834,0.0122679787249817,0.883156,0.82022,0.805695
0.08928538128538138,0.06703099999999995,0.636797,114.286,0.571,25.616,104.246,4.069565896314803,0.9121502196244509,-0.000554643235094547,0.00476906516568342,0.0130327116858996,0.880484,0.822086,0.80361
0.09821378621378633,0.07373399999999997,0.6435,123.881,0.578,21.183,109.554,5.171788698484634,0.8843486894681186,0.00229996855516843,8.67812628126009e-05,0.0094496857708346,0.879261,0.823251,0.80232
0.1071421911421913,0.08043699999999998,0.650203,127.08,0.556,19.212,116.985,6.089163023110556,0.920561850802644,0.00687100558618539,-0.00667368607387934,0.00313250599119901,0.87741,0.823417,0.800026
0.11607059607059626,0.08714,0.656906,126.44,0.563,19.212,120.594,6.277014366021237,0.953764631445745,0.0132637986690021,-0.01461300230383,-0.0040977053637215,0.872243,0.822055,0.797931
0.12499900099900123,0.09384300000000001,0.663609,125.8,0.567,19.212,121.231,6.31017072662919,0.9636804451510333,0.0198789119169547,-0.0228095084659298,-0.0105354127633938,0.871148,0.821409,0.794973
0.13392740592740618,0.10054600000000002,0.670312,124.095,0.563,18.72,124.84,6.668803418803419,1.0060034650872316,0.0290574265082378,-0.0317391485928699,-0.0154553330446432,0.864537,0.819486,0.792243
0.14285714285714304,0.10724999999999996,0.677016,127.933,0.585,19.212,122.717,6.387518217780554,0.959228658751065,0.0391597450145553,-0.0406994785230676,-0.0183067819962475,0.856693,0.818029,0.788781
0.151785547785548,0.11395299999999997,0.683719,129.212,0.571,19.705,124.84,6.335447855874144,0.9661641333622265,0.0486660809634384,-0.0489218063326152,-0.0201085216206202,0.863506,0.816245,0.785401
0.16071395271395297,0.12065599999999999,0.690422,128.785,0.578,20.197,127.388,6.307273357429322,0.9891524634080057,0.0590168506851021,-0.0571847892581566,-0.020730860220004,0.859773,0.814658,0.783628
0.16964235764235794,0.127359,0.697125,128.785,0.592,20.69,127.6,6.167230546157564,0.9907986178514578,0.0697230999981696,-0.0651064314246395,-0.0210014198239535,0.85432,0.813406,0.781471
0.1785707625707629,0.13406200000000001,0.703828,128.146,0.588,20.69,130.785,6.321169647172547,1.0205936978134316,0.0784304807167795,-0.0726436094933581,-0.02169004777997,0.849795,0.812551,0.778695
0.18749916749916787,0.14076500000000003,0.710531,132.837,0.603,21.183,130.36,6.153991408204693,0.9813530868658583,0.0864388590901203,-0.0796489265483226,-0.0230104699379909,0.847338,0.811176,0.776036
0.19642757242757283,0.14746800000000004,0.717234,134.542,0.588,21.675,132.908,6.131856978085351,0.9878550935767269,0.0945114355027688,-0.0866915996318391,-0.0243125122244182,0.841175,0.810384,0.774461
0.20535730935730967,0.15417199999999998,0.723938,134.542,0.596,22.168,134.819,6.0816943341753875,1.0020588366458056,0.102544521651667,-0.0937523388966654,-0.0261438539498006,0.834848,0.809106,0.772103
0.21428571428571463,0.160875,0.730641,134.969,0.61,22.66,135.456,5.97775816416593,1.0036082359652958,0.11009461767152,-0.100214826528435,-0.028148876941074,0.829606,0.80786,0.769533
0.2232141192141196,0.167578,0.737344,135.395,0.603,23.646,138.641,5.863190391609574,1.0239742974260495,0.118034277568591,-0.106388076234906,-0.029633644702932,0.826246,0.807173,0.767722
0.23214252414252456,0.17428100000000002,0.744047,140.299,0.617,25.123,136.518,5.433984794809537,0.9730504137591857,0.126228022606413,-0.112406621170117,-0.0309871231117843,0.822487,0.80622,0.765664
0.24107092907092953,0.18098400000000003,0.75075,141.152,0.603,26.601,138.216,5.195894891169505,0.9791997279528453,0.13457571341833,-0.118228497230931,-0.03184159645906,0.818782,0.805301,0.763647
0.2499993339993345,0.18768700000000005,0.757453,140.086,0.617,28.079,139.278,4.960219381032088,0.9942321145581998,0.142092820686071,-0.123596115167593,-0.0326201825384305,0.815107,0.803745,0.761153
0.2589277389277393,0.19438999999999995,0.764156,139.66,0.621,28.572,138.853,4.859757804843904,0.9942216812258342,0.150052244104641,-0.128690363674074,-0.0327511120471838,0.810434,0.803405,0.760136
0.26785614385614426,0.20109299999999997,0.770859,139.233,0.621,29.064,140.552,4.835948252133223,1.009473328880366,0.157576592880405,-0.133378761824693,-0.0327148200083774,0.807395,0.802663,0.758958
0.2767845487845492,0.20779599999999998,0.777562,143.498,0.635,29.557,138.428,4.683425246134587,0.9646684971219112,0.164206263338336,-0.137786580899185,-0.032216167235256,0.804111,0.802016,0.757559
0.28571428571428625,0.21450000000000002,0.784266,143.498,0.621,30.05,140.339,4.670183028286189,0.977985755899037,0.171087958846752,-0.14187635463833,-0.0321881920631367,0.801822,0.800684,0.75521
0.29464269064269133,0.22120300000000015,0.790969,142.432,0.631,30.05,141.613,4.712579034941764,0.9942498876656932,0.177313761476624,-0.145888090281271,-0.0321831205658208,0.798746,0.8003,0.75474
0.3035710955710963,0.22790600000000016,0.797672,142.218,0.638,30.05,141.613,4.712579034941764,0.995745967458409,0.182747112148448,-0.149615251392403,-0.0321549619059247,0.796048,0.799682,0.753752
0.31249950049950126,0.23460900000000018,0.804375,142.645,0.631,30.05,143.736,4.783227953410981,1.0076483578113498,0.188334162388965,-0.15307156255385,-0.0319413710337249,0.793761,0.799692,0.753557
0.3214279054279061,0.24131200000000008,0.811078,147.336,0.646,31.035,141.401,4.556178508135976,0.9597179236574903,0.193623015239479,-0.156354717744668,-0.031369217425847,0.7906,0.799133,0.753093
0.3303563103563111,0.2480150000000001,0.817781,147.549,0.624,31.527,143.949,4.56589589875345,0.9756013256613058,0.199129399937257,-0.159252449642463,-0.0306346720243442,0.788931,0.798518,0.752377
0.33928471528471604,0.2547180000000001,0.824484,146.483,0.638,31.035,144.798,4.665635572740454,0.9884969586914523,0.20426264447002,-0.161931258769789,-0.0297717917557392,0.787533,0.797896,0.752338
0.348213120213121,0.2614210000000001,0.831187,146.483,0.635,31.527,144.585,4.586069083642593,0.9870428650423599,0.208908313858344,-0.164418340051634,-0.0290957759548143,0.78656,0.798048,0.752019
0.35714285714285815,0.2681250000000003,0.837891,146.909,0.631,31.035,146.496,4.720347994200097,0.9971887358841188,0.213029861737206,-0.16676031726541,-0.028666583938878,0.784183,0.797787,0.750911
0.36607126207126295,0.2748280000000002,0.844594,150.747,0.646,31.035,144.161,4.64511035927179,0.9563109050263022,0.217157491301813,-0.168876468438226,-0.0286493845477497,0.782194,0.797383,0.751072
0.37499966699966775,0.2815310000000001,0.851297,149.468,0.638,30.542,146.072,4.782659943684107,0.9772794176679959,0.221214438724878,-0.170873821276527,-0.0282650614168927,0.781289,0.797414,0.750933
0.3839280719280727,0.2882340000000001,0.858,147.975,0.653,30.542,146.496,4.796542466112239,0.9900050684237203,0.224700188990914,-0.172596790697435,-0.0280002297115801,0.779822,0.797165,0.750773
0.3928564768564777,0.2949370000000001,0.864703,147.549,0.646,31.527,145.859,4.626478891109208,0.9885461778798907,0.228413743501859,-0.174206886778096,-0.0276738021312675,0.779281,0.796937,0.749385
0.40178488178488264,0.30164000000000013,0.871406,147.336,0.624,32.02,146.709,4.581792629606496,0.9957444209154585,0.233660555008603,-0.175759800902351,-0.0270220417993442,0.779639,0.796407,0.7499
0.4107132867132876,0.30834300000000014,0.878109,149.468,0.617,32.02,143.736,4.488944409743909,0.9616506543206572,0.237427394198734,-0.177280673457003,-0.0266365976936793,0.778427,0.795511,0.750456
0.41964169164169257,0.31504600000000016,0.884812,146.269,0.592,31.035,145.647,4.6929917834702755,0.995747561000622,0.240284671606817,-0.178511796013293,-0.0263650186100267,0.777662,0.795066,0.74998
0.42857142857142944,0.3217500000000001,0.891516,143.498,0.61,31.035,144.161,4.64511035927179,1.0046202734532885,0.24288730375303,-0.179684541395481,-0.0266694517236535,0.776993,0.794483,0.749537
0.4374998334998344,0.3284530000000001,0.898219,140.939,0.603,31.035,142.25,4.583534718865796,1.0093018965651808,0.244705288276932,-0.180545888977153,-0.0268985366180883,0.776787,0.79372,0.749357
0.44642823842823937,0.3351560000000001,0.904922,136.675,0.592,31.035,141.401,4.556178508135976,1.0345783793671117,0.244195572132524,-0.18112847277797,-0.0276697817966345,0.776504,0.793239,0.749136
0.45535664335664433,0.34185900000000013,0.911625,131.771,0.603,30.542,136.518,4.4698448038766285,1.0360246184668858,0.245310720660941,-0.181511062757906,-0.0288798262739446,0.776701,0.79288,0.749917
0.4642850482850493,0.34856200000000015,0.918328,118.977,0.585,30.542,136.73,4.476786065090694,1.1492137135748925,0.246677264286575,-0.181855624311111,-0.0304061257051773,0.778229,0.793636,0.749736
0.47321345321345426,0.35526500000000016,0.925031,107.25,0.603,31.035,135.031,4.350926373449331,1.2590303030303032,0.247016870912023,-0.181884545147602,-0.0326119059319807,0.779614,0.795107,0.74968
0.4821418581418592,0.3619680000000002,0.931734,97.016,0.596,33.005,136.093,4.123405544614451,1.4027892306423682,0.247881110716589,-0.181860998859383,-0.0344379439295289,0.779702,0.795231,0.749762
0.491070263070264,0.3686710000000001,0.938437,88.487,0.596,36.454,135.881,3.7274647500960114,1.5356041000372938,0.249067150965312,-0.181725272466058,-0.0362739137103215,0.780502,0.795229,0.750696
0.5000000000000009,0.375375,0.945141,81.877,0.599,38.424,132.908,3.4589839683531123,1.623264164539492,0.250291488293579,-0.181344197300217,-0.0375163167709963,0.780126,0.795564,0.751194
0.5089284049284057,0.3820779999999999,0.951844,71.642,0.592,39.902,134.607,3.3734399278231666,1.8788838949219733,0.251506536448593,-0.180724764508205,-0.0385080510982272,0.781026,0.795803,0.75191
0.5178568098568107,0.38878099999999993,0.958547,64.393,0.606,41.872,132.908,3.1741497898356896,2.0640131691332906,0.25231541491321,-0.179871662954942,-0.0390391563732815,0.780968,0.796906,0.754185
0.5267852147852157,0.39548399999999995,0.96525,59.063,0.603,43.35,131.21,3.0267589388696656,2.221526166974248,0.252057383344674,-0.178846659553442,-0.0397787622234653,0.78186,0.793856,0.749982
0.5357136197136203,0.40218699999999974,0.971953,54.158,0.599,44.335,131.422,2.9642945753919023,2.4266405701835367,0.253170751987375,-0.177501298043683,-0.0401649960027731,0.78263,0.794936,0.751878
0.5446420246420252,0.40888999999999964,0.978656,50.534,0.606,44.828,128.237,2.860645132506469,2.5376380258835636,0.253627552258824,-0.175910254464525,-0.040815316703165,0.783688,0.795945,0.753249
0.5535704295704301,0.41559299999999966,0.985359,42.431,0.596,44.828,130.36,2.908003926117605,3.072282057929345,0.253722598407905,-0.173901125423457,-0.0414531989806267,0.784755,0.797269,0.755435
0.5624988344988351,0.42229599999999967,0.992062,38.167,0.613,45.813,128.45,2.803789317442647,3.365472790630649,0.254157153696304,-0.17156984563183,-0.0420126946252319,0.786154,0.798619,0.757456
0.5714285714285718,0.4289999999999996,0.998766,35.822,0.603,47.784,126.963,2.657019085886489,3.5442744682038967,0.253782591766809,-0.168600096680849,-0.0426697902233869,0.788256,0.800209,0.759961
0.5803569763569767,0.4357029999999995,1.005469,33.476,0.606,49.754,127.388,2.5603569562246253,3.8053530887800218,0.252391130882613,-0.165221091440626,-0.0446074223968726,0.790621,0.801226,0.763766
0.5892853812853818,0.44240599999999963,1.012172,31.77,0.61,50.739,124.628,2.4562565285086424,3.922820270695625,0.249262198899747,-0.161213386024072,-0.0473188328028315,0.792024,0.802242,0.768503
0.5982137862137866,0.44910899999999954,1.018875,25.374,0.603,50.739,126.963,2.5022763554662095,5.003665169070702,0.243104393627731,-0.156301226867286,-0.0519844129793216,0.796211,0.80343,0.770871
0.6071421911421917,0.45581199999999966,1.025578,23.242,0.621,52.217,125.053,2.39487140203382,5.380475002151278,0.235614029202602,-0.150798801787028,-0.056578671340913,0.801058,0.806071,0.776421
0.6160705960705966,0.46251499999999957,1.032281,22.602,0.61,52.71,123.991,2.352324037184595,5.485841960888417,0.226048873854089,-0.144482852869492,-0.0616412152029241,0.80787,0.808654,0.782648
0.6249990009990014,0.46921799999999947,1.038984,21.962,0.613,53.695,124.416,2.3170872520718873,5.665057827155997,0.213058376384817,-0.137444349552757,-0.0660191085152724,0.815582,0.815648,0.792169
0.6339274059274065,0.4759209999999996,1.045687,21.536,0.617,54.68,122.08,2.232626188734455,5.668647845468053,0.197717582833054,-0.129645713227058,-0.0687280994661421,0.825409,0.819059,0.797035
0.6428571428571435,0.48262499999999964,1.052391,17.058,0.61,54.68,124.203,2.271452084857352,7.281217024270138,0.179469599674684,-0.121167741543767,-0.0696808927545364,0.829593,0.821723,0.800364
0.6517855477855483,0.48932799999999954,1.059094,16.845,0.628,55.173,122.293,2.2165370742935857,7.259899079845653,0.160390647972454,-0.111893895575543,-0.0679664617393104,0.838784,0.82292,0.801244
0.6607139527139534,0.49603099999999967,1.065797,18.124,0.617,54.68,121.231,2.217099487929773,6.688975943500331,0.14068648567297,-0.102264939587282,-0.063373819735066,0.846062,0.821408,0.799917
0.6696423576423582,0.5027339999999996,1.0725,19.19,0.617,53.202,121.443,2.2826773429570317,6.328452318916102,0.123203492555104,-0.0925930434195126,-0.0566020706160872,0.8504,0.820927,0.798207
0.6785707625707631,0.5094369999999995,1.079203,19.617,0.617,52.217,119.32,2.285079571786966,6.082479482081867,0.105745954393848,-0.0830659553255512,-0.0491788294876191,0.854155,0.821,0.798801
0.6874991674991682,0.5161399999999996,1.085906,16.419,0.613,51.724,121.656,2.3520222720593926,7.409464644619039,0.0914459904487453,-0.0743163158819954,-0.042420016854337,0.858595,0.823286,0.800046
0.696427572427573,0.5228429999999995,1.092609,17.911,0.628,51.232,119.32,2.3290131168019985,6.661827926972251,0.080047059165476,-0.0670541472087903,-0.0368107302255607,0.861709,0.824893,0.800532
0.7053559773559781,0.5295459999999996,1.099312,20.47,0.617,51.232,118.471,2.31244144284822,5.7875427454811925,0.0707514633635704,-0.0612612304209589,-0.0335138573256863,0.865451,0.825275,0.800837
0.7142857142857151,0.5362499999999997,1.106016,21.962,0.621,49.754,118.683,2.3853961490533426,5.404016027684182,0.0635750854129631,-0.0571662675931812,-0.031701611358113,0.867356,0.826413,0.802534
0.7232141192141199,0.5429529999999996,1.112719,22.815,0.624,48.769,116.772,2.3943898788164613,5.118211702827088,0.0586918585295135,-0.0544173889937645,-0.0312121969879597,0.868993,0.827114,0.803421
0.7321425241425247,0.5496559999999995,1.119422,20.043,0.613,48.276,118.683,2.458426547352722,5.921418949259094,0.0552579191858852,-0.0527735741274221,-0.0312130976148608,0.869741,0.827703,0.804735
0.7410709290709299,0.5563589999999996,1.126125,21.749,0.635,46.798,115.923,2.477093038164024,5.330038162674146,0.0532649628275671,-0.0519739997982451,-0.0316101318183977,0.871507,0.827864,0.804219
0.7499993339993346,0.5630619999999995,1.132828,23.242,0.617,46.306,115.498,2.4942340085518078,4.969365803287152,0.0519980688755799,-0.0513805128063698,-0.0318869940367887,0.872024,0.828659,0.805426
0.7589277389277398,0.5697649999999996,1.139531,23.668,0.621,45.321,115.498,2.548443326493237,4.879922257900963,0.0511738713393215,-0.0509920229992,-0.0317429082500256,0.871235,0.829396,0.805896
0.7678561438561445,0.5764679999999995,1.146234,23.668,0.624,45.813,113.8,2.48401108855565,4.808179820855163,0.0503071261781531,-0.0506030423825832,-0.0316475951396949,0.874858,0.829583,0.80498
0.7767858807858816,0.5831719999999996,1.152938,21.109,0.613,45.321,115.711,2.553143134529247,5.481595527973849,0.0488515432604804,-0.0502060020338864,-0.0315062900804513,0.876077,0.830493,0.805866
0.7857142857142864,0.5898749999999995,1.159641,23.242,0.638,45.321,112.738,2.487544405463251,4.850615265467687,0.0473972290196191,-0.0496502108226263,-0.0311415621840407,0.876401,0.831355,0.806704
0.7946426906426916,0.5965779999999996,1.166344,24.308,0.621,44.828,112.526,2.510172213794949,4.629175580055948,0.0459311729510525,-0.0489994380009789,-0.030803788460143,0.873864,0.83219,0.805794
0.8035710955710963,0.6032809999999995,1.173047,24.308,0.624,44.335,112.738,2.542866809518439,4.637896988645713,0.0445180698769589,-0.0483321337769549,-0.0305527317219158,0.87708,0.833578,0.806784
0.8124995004995015,0.6099839999999996,1.17975,24.094,0.631,43.35,111.04,2.5614763552479816,4.608616253009048,0.0427809134972653,-0.0474220161611799,-0.030442542893327,0.878336,0.832665,0.808028
0.8214279054279062,0.6166869999999995,1.186453,21.962,0.621,42.857,112.951,2.635532118440395,5.143019761406065,0.0422431552605517,-0.0463331185133469,-0.0299689373181806,0.878679,0.833265,0.807979
0.8303563103563113,0.6233899999999997,1.193156,24.734,0.638,42.857,110.191,2.5711319037730127,4.455041643082397,0.0411150211303143,-0.0452166314506376,-0.0297169749328287,0.880437,0.8335,0.808479
0.8392847152847162,0.6300929999999996,1.199859,25.8,0.624,42.365,110.191,2.600991384397498,4.270968992248062,0.0394957030721142,-0.0438524359143806,-0.0298373311561539,0.881969,0.833592,0.808587
0.8482144522144531,0.6367969999999996,1.206563,25.587,0.649,42.365,110.403,2.6059955151658207,4.314808301090398,0.0381697957753437,-0.0424825901426476,-0.029865863921817,0.881284,0.833914,0.809123
0.857142857142858,0.6434999999999995,1.213266,25.161,0.649,41.38,108.917,2.6321169647172544,4.328802511823854,0.0367792615576224,-0.0411878352772016,-0.029543472199596,0.882615,0.833974,0.808986
0.8660712620712631,0.6502029999999996,1.219969,23.668,0.66,41.38,110.615,2.6731512808119864,4.673609937468312,0.034749713904538,-0.0398970636788394,-0.0295320217749808,0.882912,0.834715,0.809389
0.8749996669996679,0.6569059999999995,1.226672,26.866,0.674,41.38,107.431,2.5962058965683905,3.9987716816794463,0.0329741343964567,-0.0383742188116522,-0.0292132009397529,0.883306,0.833777,0.809301
0.883928071928073,0.6636089999999997,1.233375,27.932,0.671,41.38,108.067,2.611575640405993,3.8689316912501788,0.0311009822393049,-0.0367431778684062,-0.0283326319947757,0.882902,0.833487,0.809767
0.8928564768564778,0.6703119999999996,1.240078,27.293,0.692,41.38,108.28,2.6167230546157563,3.9673176272304254,0.0285216082102994,-0.0346444464265937,-0.0274426930257436,0.882561,0.833138,0.81035
0.9017848817848827,0.6770149999999995,1.246781,27.08,0.671,39.902,106.794,2.676407197634204,3.9436484490398818,0.025432370278491,-0.03200255037262,-0.0267112586141468,0.881485,0.833286,0.81115
0.9107132867132878,0.6837179999999996,1.253484,26.013,0.631,38.917,108.492,2.7877791196649278,4.1706838888248186,0.0215342696341851,-0.0284843107906501,-0.0251161222417554,0.881521,0.832208,0.812641
0.9196430236430247,0.6904219999999996,1.260188,30.278,0.624,38.917,105.307,2.705938278901251,3.4780038311645423,0.0177777041891939,-0.0242947316965706,-0.0224549843370196,0.879114,0.83083,0.813177
0.9285714285714296,0.6971249999999996,1.266891,31.557,0.61,38.917,106.369,2.733227124392939,3.370694299204614,0.0132828756958467,-0.0191952082739651,-0.0191963219718306,0.87965,0.829564,0.813042
0.9374998334998345,0.7038279999999995,1.273594,31.557,0.621,37.931,106.581,2.809865281695711,3.3774123015495774,0.00883163218492017,-0.0135956553963491,-0.0147792484959269,0.878443,0.827801,0.812523
0.9464282384282395,0.7105309999999996,1.280297,31.984,0.621,38.424,105.307,2.740656881115969,3.292489994997499,0.0048536108403815,-0.00791985028970619,-0.00946379472646075,0.879031,0.824963,0.811531
0.9553566433566443,0.7172339999999995,1.287,32.41,0.617,37.931,107.006,2.821069837336216,3.3016352977476093,0.00144391817379604,-0.00274196483440216,-0.00410379828934796,0.879421,0.823147,0.811208
0.9642850482850491,0.7239369999999994,1.293703,37.527,0.624,37.439,103.609,2.7674083175298483,2.760918805126975,-0.00143434746339974,0.00194758201575253,0.000924677109572156,0.879884,0.821336,0.811437
0.9732134532134536,0.7306399999999991,1.300406,39.02,0.556,37.439,104.458,2.7900852052672347,2.6770374167093793,-0.00339565520511675,0.00573948531119636,0.00505373573122839,0.880409,0.819927,0.810857
0.9821418581418585,0.737342999999999,1.307109,39.446,0.756,36.454,104.67,2.8712898447358315,2.653500988693404,-0.00489913118736498,0.0086699113418018,0.0077837617110861,0.882062,0.818939,0.809975
0.991070263070263,0.7440459999999987,1.313812,40.939,1.267,34.976,103.184,2.9501372369624885,2.5204328391020785,-0.00638109768330446,0.0105054209566906,0.00840399941539433,0.884834,0.818688,0.810052
1.0,0.7507499999999987,1.320516,44.35,1.474,33.498,104.246,3.112006686966386,2.3505298759864712,-0.00728653910370795,0.0109825925861505,0.0064668334693155,0.888478,0.81975,0.808643
