cardiac cycle [%],t abs [s],t [s],LVP [mmHg],ECG [mV],LAD Flow [ml/s],AoP [mmHg],rad strain,circ strain,long strain,tissue vol ischemic [ml],tissue vol border [ml],tissue vol remote [ml]
0.0,0.0,0.462516,3.228,0.485,15.348,13.266,0.0,0.0,0.0,1.066418,0.905113,1.29595
0.009900814605289417,0.0067030000000000145,0.469219,5.246,0.567,15.348,14.082,0.00330259554458467,-0.00198920194987014,-0.00143318730218617,1.063891,0.903188,1.296107
0.019801629210578833,0.013406000000000029,0.475922,10.292,0.278,14.853,15.715,0.00556499059422169,-0.00346596387437894,-0.00247904760770905,1.06084,0.899889,1.2952
0.02970244381586825,0.020109000000000044,0.482625,12.31,0.756,14.853,18.368,0.00618556291247137,-0.00398559627264058,-0.00303337585877812,1.062467,0.894293,1.289117
0.03960325842115758,0.026812000000000002,0.489328,13.723,0.574,14.357,21.633,0.00716999254790372,-0.00358125735807289,-0.0025983737923505,1.059188,0.890557,1.285846
0.049504073026447,0.03351500000000002,0.496031,13.117,0.624,14.357,26.123,0.00664007257990374,-0.00216978758310096,-0.00198082462824102,1.057527,0.89002,1.289424
0.05940488763173642,0.04021800000000003,0.502734,11.705,0.838,14.357,31.021,0.00530751989433008,-0.000574127330470092,-0.000922651255448017,1.061203,0.888932,1.288931
0.0693071793091733,0.046921999999999964,0.509438,12.108,0.471,13.862,35.715,0.00333800342592938,0.00213220890503353,-0.000421338642314069,1.058488,0.885919,1.285568
0.07920799391446272,0.05362499999999998,0.516141,11.099,0.885,13.367,40.613,0.00174069495781143,0.00436863886766588,0.000325853717976404,1.058799,0.885267,1.28317
0.08910880851975213,0.06032799999999999,0.522844,7.668,0.56,12.872,45.919,0.00136561826419564,0.00598332370812122,0.000602526780870453,1.058864,0.885957,1.283938
0.09900962312504155,0.06703100000000001,0.529547,7.265,0.656,11.882,51.021,0.00128537615608841,0.00573920117371371,0.000200689593910135,1.057851,0.886159,1.284367
0.10891043773033096,0.07373400000000002,0.53625,6.861,0.821,10.892,55.103,0.00311578935624497,0.00460935263811743,-0.00100891074694514,1.057618,0.885988,1.282587
0.11881125233562038,0.08043700000000004,0.542953,6.659,0.478,9.407,58.368,0.00525209662813082,0.00244253645691248,-0.00242839380715614,1.057233,0.885792,1.279728
0.1287120669409098,0.08714000000000005,0.549656,7.063,0.888,8.912,61.225,0.00742879807649522,-0.000440079651201335,-0.00408374410948364,1.056661,0.886314,1.280068
0.13861288154619922,0.09384300000000007,0.556359,6.861,0.599,7.922,63.266,0.0103819732266813,-0.00375522889195852,-0.00637225138227716,1.055388,0.886669,1.280202
0.14851369615148846,0.10054599999999997,0.563062,7.466,0.71,7.427,64.899,0.0132464775941316,-0.00733886575253307,-0.00908181111920605,1.052526,0.886308,1.278876
0.15841598782892552,0.10725000000000001,0.569766,8.072,0.842,7.427,66.327,0.0165865196832872,-0.0116903428505244,-0.0114900593267481,1.051131,0.885884,1.275849
0.16831680243421493,0.11395300000000003,0.576469,8.274,0.492,7.427,67.348,0.020297010088353,-0.0159556233255906,-0.0137178679142597,1.049493,0.885577,1.275668
0.17821761703950434,0.12065600000000004,0.583172,8.476,0.906,7.922,68.368,0.0238864551299039,-0.0200611736959235,-0.0158645107859835,1.044586,0.885663,1.27568
0.18811843164479375,0.12735900000000006,0.589875,8.879,0.585,8.417,68.98,0.0277092409462633,-0.024898651812496,-0.0184269851159866,1.041741,0.884127,1.273502
0.1980192462500832,0.13406200000000007,0.596578,9.081,0.724,9.407,69.593,0.0304542476530324,-0.0283893071100548,-0.0213058531387394,1.039828,0.883655,1.272481
0.20792006085537243,0.14076499999999997,0.603281,9.081,0.806,9.902,70.001,0.0325418399441361,-0.0312456857097984,-0.0245998953149722,1.038548,0.883518,1.272517
0.21782087546066184,0.147468,0.609984,9.686,0.531,10.892,70.409,0.03558758250054,-0.0364633017207046,-0.0266559170211746,1.033448,0.882551,1.270944
0.22772169006595128,0.154171,0.616687,10.09,0.903,11.387,70.817,0.0384714211463402,-0.0401661401203153,-0.0284430129846397,1.032231,0.882333,1.269988
0.2376239817433883,0.16087500000000005,0.623391,10.292,0.571,12.377,71.225,0.0407200686003512,-0.0441102647806378,-0.0305023077891681,1.02768,0.881432,1.269101
0.24752479634867772,0.16757800000000006,0.630094,10.494,0.756,12.872,71.634,0.0453356199310682,-0.0469358339194095,-0.032229425813422,1.023512,0.880679,1.267674
0.257425610953967,0.17428099999999996,0.636797,10.292,0.831,12.872,72.042,0.0489820385673802,-0.0490229384839224,-0.0345171491047276,1.020441,0.879564,1.267154
0.2673264255592564,0.18098399999999998,0.6435,10.292,0.517,13.367,72.45,0.0520115420988674,-0.0526001451432781,-0.0364592681872042,1.018395,0.879818,1.265705
0.2772272401645458,0.187687,0.650203,10.292,0.924,13.862,72.858,0.0556223307095617,-0.0554464475340799,-0.0384560182670096,1.015933,0.87907,1.265022
0.2871280547698352,0.19439,0.656906,9.888,0.588,13.862,73.47,0.0593985308483322,-0.0577668300196219,-0.0401966513201445,1.011454,0.878518,1.263787
0.2970288693751246,0.20109300000000002,0.663609,9.081,0.756,14.357,73.878,0.0623820424075333,-0.0602100664889852,-0.0421658461955184,1.008602,0.877364,1.261223
0.30692968398041404,0.20779600000000004,0.670312,8.476,0.781,14.357,74.287,0.0647412793516034,-0.0623323023895797,-0.0435321335616988,1.005527,0.87618,1.258591
0.31683197565785093,0.21449999999999997,0.677016,8.274,0.524,14.853,74.695,0.0676327598161808,-0.0646659418760268,-0.0444641170520526,1.002845,0.875663,1.258409
0.32673279026314034,0.22120299999999998,0.683719,7.87,0.924,15.348,75.103,0.0694458387077631,-0.0674040659358571,-0.0455187426145618,0.998977,0.875108,1.257826
0.3366336048684298,0.227906,0.690422,7.265,0.581,15.348,75.307,0.0713544018027107,-0.0700696923019704,-0.0467368801028256,0.996155,0.874603,1.255903
0.3465344194737192,0.234609,0.697125,6.861,0.778,15.348,75.511,0.0734188935404608,-0.0727301681923259,-0.0478397004392512,0.993717,0.873615,1.254261
0.3564352340790086,0.24131200000000003,0.703828,6.659,0.792,15.348,75.715,0.0751148314389909,-0.0752721491505177,-0.048821226649959,0.991516,0.872574,1.254273
0.36633604868429803,0.24801500000000004,0.710531,6.256,0.535,15.348,75.715,0.0766876513564578,-0.0776733074626085,-0.0500593978551599,0.98796,0.872041,1.252423
0.37623686328958744,0.25471800000000006,0.717234,6.054,0.867,15.843,75.715,0.0784383319916709,-0.0803575937958198,-0.0513772654388722,0.986114,0.872189,1.251534
0.38613915496702433,0.261422,0.723938,5.448,0.499,15.843,75.715,0.0804719266310316,-0.082998532555871,-0.0524047539811414,0.985866,0.870799,1.251377
0.39603996957231374,0.268125,0.730641,5.045,0.692,15.843,75.715,0.0822777029969685,-0.0854836229745142,-0.0535420697406582,0.982045,0.870439,1.250961
0.40594078417760315,0.274828,0.737344,4.843,0.685,15.843,75.715,0.0841684252939628,-0.0877892205217468,-0.0544252329704378,0.981704,0.870301,1.249213
0.41584159878289256,0.28153100000000003,0.744047,4.439,0.431,15.843,75.511,0.0857564285812376,-0.0897761206340209,-0.0554850330881107,0.978262,0.869617,1.246546
0.425742413388182,0.28823400000000005,0.75075,4.237,0.817,15.843,75.511,0.0877379761747567,-0.0917834423847998,-0.0564261423565678,0.977745,0.868164,1.245486
0.4356432279934714,0.29493700000000006,0.757453,3.834,0.428,15.843,75.715,0.0893997470675678,-0.0937944263323804,-0.05695585789814,0.975436,0.867529,1.245382
0.4455440425987607,0.30163999999999996,0.764156,3.632,0.678,15.843,75.715,0.0904683731147517,-0.0951642827340485,-0.0572785222428998,0.974323,0.86681,1.242787
0.4554448572040501,0.308343,0.770859,3.43,0.66,15.843,75.511,0.0912608289491915,-0.0964934417914435,-0.0571402428816651,0.97307,0.866345,1.242097
0.4653456718093395,0.315046,0.777562,3.027,0.449,15.843,75.307,0.0916854015192322,-0.0977320297065736,-0.0572531161433492,0.970341,0.865099,1.242026
0.47524796348677656,0.32175000000000004,0.784266,2.825,0.81,15.843,75.103,0.0917579005110659,-0.098888308585987,-0.0573603978493205,0.968843,0.864793,1.241225
0.48514877809206597,0.32845300000000005,0.790969,2.623,0.431,15.348,74.695,0.0921891183609742,-0.100409055389096,-0.0571356498256118,0.966477,0.863853,1.238731
0.4950495926973554,0.33515600000000006,0.797672,2.421,0.685,15.348,74.287,0.0917656658631513,-0.101811511930256,-0.0567288275508947,0.964816,0.862757,1.236727
0.5049504073026446,0.34185899999999997,0.804375,2.219,0.617,15.348,73.674,0.0910154462056718,-0.103457891063487,-0.055673516044739,0.962005,0.861842,1.236615
0.5148512219079341,0.348562,0.811078,1.816,0.453,15.348,72.858,0.0905397390550503,-0.104937603503891,-0.0545592386991267,0.960509,0.861002,1.235382
0.5247520365132234,0.355265,0.817781,1.614,0.788,15.348,71.634,0.0898327729109286,-0.106265842165569,-0.0536848797513459,0.958695,0.860384,1.23258
0.5346528511185129,0.361968,0.824484,1.21,0.403,14.853,70.001,0.089724314489203,-0.10708740451943,-0.053117255090864,0.959236,0.859401,1.230347
0.5445536657238023,0.368671,0.831187,0.807,0.724,14.853,67.756,0.0894096257178404,-0.107710124354944,-0.052076588071195,0.956894,0.85814,1.229376
0.5544559574012393,0.37537500000000007,0.837891,0.403,0.635,14.357,64.899,0.0895274674887144,-0.108155269593157,-0.0510073024500448,0.956546,0.857731,1.229266
0.5643567720065286,0.382078,0.844594,-0.203,0.492,14.357,61.634,0.0907179277184692,-0.107759766191175,-0.0500401283564096,0.955671,0.856133,1.22772
0.574257586611818,0.388781,0.851297,-0.808,0.835,14.357,57.96,0.0934085166868048,-0.107861581985244,-0.0512074967434812,0.955251,0.855689,1.229353
0.5841584012171074,0.395484,0.858,-6.459,0.446,13.862,53.878,0.0969367541566544,-0.108124964319544,-0.052113249505893,0.955962,0.856579,1.231444
0.5940592158223968,0.402187,0.864703,-2.019,0.767,13.367,48.368,0.101066215573709,-0.108550216556008,-0.0536941032723331,0.954807,0.85671,1.2327
0.6039600304276863,0.40889000000000003,0.871406,-0.808,0.606,13.367,44.082,0.105817448758277,-0.110134197894022,-0.0555598792456824,0.954733,0.855063,1.232922
0.6138608450329757,0.41559300000000005,0.878109,-0.404,0.51,13.367,40.817,0.110246950016565,-0.112071507319529,-0.0573103486222994,0.952017,0.854944,1.234741
0.6237616596382651,0.42229600000000006,0.884812,-0.606,0.863,13.862,37.552,0.115575451742215,-0.114438509749837,-0.0580014358472127,0.952576,0.855107,1.235923
0.633663951315702,0.429,0.891516,-2.019,0.46,14.357,34.899,0.120107062775754,-0.116473401181417,-0.0587295574861957,0.952228,0.853763,1.236681
0.6435647659209914,0.435703,0.898219,-2.019,0.76,15.348,32.042,0.124650587812484,-0.118795501718952,-0.0598894090596683,0.951588,0.852558,1.238093
0.6534655805262808,0.442406,0.904922,-2.221,0.642,16.338,29.389,0.128687689086204,-0.121033797402695,-0.0610194752573487,0.951143,0.852073,1.239835
0.6633663951315703,0.44910900000000004,0.911625,-2.221,0.56,17.328,26.735,0.132913423316976,-0.122967136183071,-0.0623446324349004,0.949946,0.852463,1.240647
0.6732672097368596,0.45581200000000005,0.918328,-2.019,0.835,18.318,24.491,0.137724065449949,-0.125418228710115,-0.0637275995247144,0.950167,0.852525,1.241329
0.6831680243421491,0.46251500000000006,0.925031,-1.817,0.456,18.813,22.246,0.140962431715404,-0.127469279845787,-0.0650258501342658,0.95136,0.852272,1.24126
0.6930688389474383,0.46921799999999997,0.931734,-1.817,0.806,19.803,20.205,0.145561016496597,-0.13041528626014,-0.0659812061294535,0.950879,0.851519,1.243302
0.7029696535527277,0.475921,0.938437,-2.221,0.649,20.298,18.164,0.148992908830703,-0.133324660175899,-0.067529561965117,0.948027,0.852779,1.245646
0.7128719452301647,0.482625,0.945141,-2.221,0.556,20.793,16.327,0.152037656184863,-0.136490578110133,-0.0687754987463264,0.949315,0.854619,1.246786
0.7227727598354542,0.48932800000000004,0.951844,-2.826,0.817,20.793,14.491,0.154941177317102,-0.139546854584311,-0.0698354411101071,0.949726,0.855314,1.248048
0.7326735744407437,0.49603100000000006,0.958547,-2.423,0.431,21.288,13.062,0.158015943982611,-0.142290889043217,-0.0706544745615328,0.951017,0.857145,1.250314
0.7425743890460329,0.502734,0.96525,-2.019,0.774,21.288,11.837,0.159600786121782,-0.144044788945571,-0.0709142288466509,0.952398,0.858341,1.249443
0.7524752036513221,0.5094369999999999,0.971953,-1.615,0.592,21.783,11.021,0.16020311608418,-0.144514597794434,-0.0713183791782745,0.955283,0.858837,1.248892
0.7623760182566116,0.5161399999999999,0.978656,-1.212,0.563,21.783,10.205,0.159371744179827,-0.143567692953823,-0.0705175527690271,0.958152,0.859736,1.251898
0.7722768328619011,0.522843,0.985359,-0.808,0.817,21.783,9.797,0.156125459708116,-0.140714225018645,-0.0679289677888765,0.962053,0.861827,1.253828
0.7821776474671904,0.529546,0.992062,-0.001,0.46,21.783,9.184,0.150190342508257,-0.138374406701843,-0.063163311649085,0.965675,0.864471,1.256807
0.7920799391446275,0.53625,0.998766,1.21,0.799,21.783,8.98,0.139803490792542,-0.135897340875255,-0.0582222515753679,0.971833,0.867946,1.259911
0.8019807537499167,0.5429529999999999,1.005469,2.219,0.617,22.278,8.572,0.129503079275439,-0.127170141039858,-0.051969046705958,0.980965,0.872654,1.266555
0.8118815683552063,0.549656,1.012172,2.623,0.592,22.278,8.368,0.118635824306078,-0.120081149933557,-0.0443511544343404,0.98571,0.875989,1.270854
0.8217823829604955,0.5563589999999999,1.018875,4.237,0.817,22.278,8.368,0.106360714216899,-0.111517140007969,-0.0368226574725307,0.99548,0.878627,1.272989
0.8316831975657851,0.5630620000000001,1.025578,5.045,0.474,21.783,8.368,0.0925696283998584,-0.101482733374647,-0.0281897718434064,1.004186,0.881068,1.276919
0.8415840121710744,0.569765,1.032281,5.65,0.835,21.783,8.572,0.0791220002547584,-0.0900521849282051,-0.019851387733775,1.014234,0.882144,1.280205
0.8514848267763636,0.5764679999999999,1.038984,6.457,0.592,21.783,8.98,0.0654537719740894,-0.0786379151328252,-0.0152892183521857,1.02307,0.885665,1.281161
0.8613856413816532,0.583171,1.045687,7.265,0.581,21.288,9.389,0.0522404734611006,-0.0659485106266566,-0.0117115104960627,1.031666,0.889492,1.279674
0.8712879330590902,0.589875,1.052391,6.457,0.799,21.288,10.205,0.0384321249273061,-0.0495502313966488,-0.00983143623873375,1.038251,0.89279,1.283652
0.8811887476643795,0.5965779999999999,1.059094,5.65,0.449,20.793,10.613,0.0269833944577653,-0.0340543938396822,-0.00882745561584636,1.044531,0.89453,1.286729
0.8910895622696691,0.6032810000000001,1.065797,5.246,0.846,20.298,11.837,0.0186356207821373,-0.0225344417313648,-0.0067966553104144,1.05104,0.898033,1.291761
0.9009903768749584,0.609984,1.0725,4.237,0.556,19.803,12.45,0.0110897385430801,-0.0129484635006922,-0.00338663424224144,1.05696,0.900938,1.294043
0.9108911914802477,0.6166869999999999,1.079203,4.036,0.588,19.308,13.266,0.00532190383806056,-0.00503219400176374,-0.00109496427550862,1.063713,0.902289,1.296771
0.9207920060855372,0.62339,1.085906,4.237,0.771,18.813,13.674,0.000423638737130611,0.00174679359930155,0.00076660619718111,1.067408,0.90292,1.297779
0.9306928206908265,0.6300929999999999,1.092609,5.045,0.438,18.318,14.082,-0.00359986815756763,0.00519987314828984,0.00257974248629314,1.069851,0.904196,1.297366
0.9405936352961161,0.636796,1.099312,5.045,0.799,17.823,14.491,-0.00638821019244244,0.00779229042168247,0.00405364528259426,1.069148,0.904027,1.297178
0.9504959269735531,0.6435000000000001,1.106016,4.843,0.521,17.328,14.695,-0.00792037973353874,0.00844337430068255,0.00477714665723508,1.067918,0.905346,1.298851
0.9603967415788424,0.650203,1.112719,4.036,0.592,16.833,14.491,-0.00851668863763915,0.0079876190070458,0.00498645071869034,1.070844,0.906172,1.298219
0.9702975561841316,0.6569059999999999,1.119422,3.027,0.781,16.338,14.082,-0.00778334396349484,0.00675796253944003,0.00457615913487126,1.071274,0.906625,1.296579
0.9801983707894212,0.663609,1.126125,2.421,0.653,15.843,13.674,-0.00577876615440791,0.00505490941074728,0.00371817637131045,1.068462,0.906825,1.296567
0.9900991853947104,0.6703119999999999,1.132828,2.219,1.024,15.843,13.266,-0.00348611986360148,0.00316287394780672,0.00190494536852771,1.067615,0.907018,1.297001
1.0,0.677015,1.139531,3.027,0.51,15.348,13.47,-0.00070154451245162,0.000900060328592949,0.000286005197808523,1.066906,0.903647,1.295094
